
dc (V)            getData("M0:gm    getData("M0:id    getData("M0:cg    getData("M0:gd    getData("M0:vt    getData("M0:vd

 0.00000e+00       2.61609e-11       9.34832e-13       1.31808e-15       1.23436e-13       5.77359e-01       4.95962e-02      
 9.00000e-03       3.45051e-11       1.20234e-12       1.31481e-15       1.62814e-13       5.77359e-01       4.95962e-02      
 1.80000e-02       4.55097e-11       1.55685e-12       1.31163e-15       2.14752e-13       5.77359e-01       4.95962e-02      
 2.70000e-02       6.00224e-11       2.02592e-12       1.30852e-15       2.83252e-13       5.77359e-01       4.95962e-02      
 3.60000e-02       7.91608e-11       2.64592e-12       1.30548e-15       3.73595e-13       5.77359e-01       4.95962e-02      
 4.50000e-02       1.04398e-10       3.46480e-12       1.30252e-15       4.92741e-13       5.77359e-01       4.95962e-02      
 5.40000e-02       1.37676e-10       4.54580e-12       1.29963e-15       6.49868e-13       5.77359e-01       4.95963e-02      
 6.30000e-02       1.81553e-10       5.97230e-12       1.29681e-15       8.57074e-13       5.77359e-01       4.95963e-02      
 7.20000e-02       2.39401e-10       7.85422e-12       1.29407e-15       1.13030e-12       5.77359e-01       4.95964e-02      
 8.10000e-02       3.15663e-10       1.03364e-11       1.29142e-15       1.49058e-12       5.77359e-01       4.95964e-02      
 9.00000e-02       4.16190e-10       1.36099e-11       1.28885e-15       1.96560e-12       5.77359e-01       4.95965e-02      
 9.90000e-02       5.48687e-10       1.79263e-11       1.28637e-15       2.59186e-12       5.77359e-01       4.95966e-02      
 1.08000e-01       7.23298e-10       2.36171e-11       1.28399e-15       3.41743e-12       5.77359e-01       4.95968e-02      
 1.17000e-01       9.53374e-10       3.11189e-11       1.28173e-15       4.50564e-12       5.77359e-01       4.95970e-02      
 1.26000e-01       1.25648e-09       4.10067e-11       1.27959e-15       5.93986e-12       5.77359e-01       4.95972e-02      
 1.35000e-01       1.65571e-09       5.40375e-11       1.27760e-15       7.82986e-12       5.77359e-01       4.95976e-02      
 1.44000e-01       2.18142e-09       7.12076e-11       1.27577e-15       1.03201e-11       5.77359e-01       4.95980e-02      
 1.53000e-01       2.87349e-09       9.38274e-11       1.27413e-15       1.36004e-11       5.77359e-01       4.95986e-02      
 1.62000e-01       3.78426e-09       1.23620e-10       1.27270e-15       1.79207e-11       5.77359e-01       4.95994e-02      
 1.71000e-01       4.98238e-09       1.62851e-10       1.27154e-15       2.36092e-11       5.77359e-01       4.96004e-02      
 1.80000e-01       6.55733e-09       2.14492e-10       1.27063e-15       3.10965e-11       5.77359e-01       4.96018e-02      
 1.89000e-01       8.62687e-09       2.82445e-10       1.27007e-15       4.09475e-11       5.77359e-01       4.96036e-02      
 1.98000e-01       1.13446e-08       3.71824e-10       1.26993e-15       5.39029e-11       5.77359e-01       4.96059e-02      
 2.07000e-01       1.49109e-08       4.89329e-10       1.27028e-15       7.09323e-11       5.77359e-01       4.96090e-02      
 2.16000e-01       1.95867e-08       6.43728e-10       1.27120e-15       9.33036e-11       5.77359e-01       4.96130e-02      
 2.25000e-01       2.57112e-08       8.46472e-10       1.27279e-15       1.22672e-10       5.77359e-01       4.96184e-02      
 2.34000e-01       3.37239e-08       1.11250e-09       1.27517e-15       1.61196e-10       5.77359e-01       4.96253e-02      
 2.43000e-01       4.41929e-08       1.46128e-09       1.27846e-15       2.11682e-10       5.77359e-01       4.96345e-02      
 2.52000e-01       5.78500e-08       1.91807e-09       1.28282e-15       2.77772e-10       5.77359e-01       4.96465e-02      
 2.61000e-01       7.56341e-08       2.51566e-09       1.28839e-15       3.64179e-10       5.77359e-01       4.96621e-02      
 2.70000e-01       9.87442e-08       3.29638e-09       1.29537e-15       4.76979e-10       5.77359e-01       4.96825e-02      
 2.79000e-01       1.28703e-07       4.31480e-09       1.30393e-15       6.23982e-10       5.77359e-01       4.97092e-02      
 2.88000e-01       1.67435e-07       5.64093e-09       1.31428e-15       8.15171e-10       5.77359e-01       4.97438e-02      
 2.97000e-01       2.17349e-07       7.36422e-09       1.32662e-15       1.06325e-09       5.77359e-01       4.97888e-02      
 3.06000e-01       2.81444e-07       9.59841e-09       1.34116e-15       1.38427e-09       5.77359e-01       4.98470e-02      
 3.15000e-01       3.63412e-07       1.24873e-08       1.35810e-15       1.79839e-09       5.77359e-01       4.99222e-02      
 3.24000e-01       4.67754e-07       1.62114e-08       1.37764e-15       2.33068e-09       5.77359e-01       5.00187e-02      
 3.33000e-01       5.99892e-07       2.09960e-08       1.39995e-15       3.01206e-09       5.77359e-01       5.01423e-02      
 3.42000e-01       7.66266e-07       2.71195e-08       1.42517e-15       3.88017e-09       5.77359e-01       5.02998e-02      
 3.51000e-01       9.74412e-07       3.49235e-08       1.45342e-15       4.98032e-09       5.77359e-01       5.04994e-02      
 3.60000e-01       1.23300e-06       4.48222e-08       1.48479e-15       6.36617e-09       5.77359e-01       5.07508e-02      
 3.69000e-01       1.55182e-06       5.73133e-08       1.51931e-15       8.10022e-09       5.77359e-01       5.10652e-02      
 3.78000e-01       1.94169e-06       7.29872e-08       1.55697e-15       1.02539e-08       5.77359e-01       5.14555e-02      
 3.87000e-01       2.41430e-06       9.25357e-08       1.59773e-15       1.29069e-08       5.77359e-01       5.19358e-02      
 3.96000e-01       2.98195e-06       1.16759e-07       1.64148e-15       1.61462e-08       5.77359e-01       5.25214e-02      
 4.05000e-01       3.65723e-06       1.46570e-07       1.68808e-15       2.00641e-08       5.77359e-01       5.32285e-02      
 4.14000e-01       4.45264e-06       1.82994e-07       1.73734e-15       2.47550e-08       5.77359e-01       5.40733e-02      
 4.23000e-01       5.38012e-06       2.27167e-07       1.78902e-15       3.03132e-08       5.77359e-01       5.50715e-02      
 4.32000e-01       6.45071e-06       2.80329e-07       1.84285e-15       3.68284e-08       5.77359e-01       5.62377e-02      
 4.41000e-01       7.67420e-06       3.43814e-07       1.89854e-15       4.43831e-08       5.77359e-01       5.75847e-02      
 4.50000e-01       9.05899e-06       4.19037e-07       1.95575e-15       5.30494e-08       5.77359e-01       5.91229e-02      
 4.59000e-01       1.06121e-05       5.07484e-07       2.01414e-15       6.28877e-08       5.77359e-01       6.08601e-02      
 4.68000e-01       1.23396e-05       6.10698e-07       2.07336e-15       7.39456e-08       5.77359e-01       6.28013e-02      
 4.77000e-01       1.42468e-05       7.30272e-07       2.13306e-15       8.62590e-08       5.77359e-01       6.49491e-02      
 4.86000e-01       1.63390e-05       8.67848e-07       2.19287e-15       9.98535e-08       5.77359e-01       6.73038e-02      
 4.95000e-01       1.86221e-05       1.02512e-06       2.25247e-15       1.14747e-07       5.77359e-01       6.98639e-02      
 5.04000e-01       2.11029e-05       1.20383e-06       2.31153e-15       1.30951e-07       5.77359e-01       7.26267e-02      
 5.13000e-01       2.37893e-05       1.40580e-06       2.36976e-15       1.48477e-07       5.77359e-01       7.55889e-02      
 5.22000e-01       2.66904e-05       1.63292e-06       2.42687e-15       1.67334e-07       5.77359e-01       7.87467e-02      
 5.31000e-01       2.98163e-05       1.88716e-06       2.48264e-15       1.87531e-07       5.77359e-01       8.20965e-02      
 5.40000e-01       3.31773e-05       2.17059e-06       2.53685e-15       2.09080e-07       5.77359e-01       8.56345e-02      
 5.49000e-01       3.67834e-05       2.48538e-06       2.58934e-15       2.31996e-07       5.77359e-01       8.93574e-02      
 5.58000e-01       4.06440e-05       2.83378e-06       2.63995e-15       2.56294e-07       5.77359e-01       9.32618e-02      
 5.67000e-01       4.47668e-05       3.21810e-06       2.68859e-15       2.81988e-07       5.77359e-01       9.73445e-02      
 5.76000e-01       4.91575e-05       3.64074e-06       2.73518e-15       3.09097e-07       5.77359e-01       1.01602e-01      
 5.85000e-01       5.38191e-05       4.10413e-06       2.77966e-15       3.37634e-07       5.77359e-01       1.06031e-01      
 5.94000e-01       5.87518e-05       4.61070e-06       2.82201e-15       3.67612e-07       5.77359e-01       1.10628e-01      
 6.03000e-01       6.39529e-05       5.16289e-06       2.86223e-15       3.99042e-07       5.77359e-01       1.15388e-01      
 6.12000e-01       6.94163e-05       5.76308e-06       2.90035e-15       4.31929e-07       5.77359e-01       1.20307e-01      
 6.21000e-01       7.51330e-05       6.41360e-06       2.93640e-15       4.66277e-07       5.77359e-01       1.25378e-01      
 6.30000e-01       8.10911e-05       7.11667e-06       2.97042e-15       5.02084e-07       5.77359e-01       1.30598e-01      
 6.39000e-01       8.72760e-05       7.87440e-06       3.00249e-15       5.39343e-07       5.77359e-01       1.35958e-01      
 6.48000e-01       9.36711e-05       8.68876e-06       3.03267e-15       5.78044e-07       5.77359e-01       1.41453e-01      
 6.57000e-01       1.00258e-04       9.56155e-06       3.06104e-15       6.18171e-07       5.77359e-01       1.47074e-01      
 6.66000e-01       1.07015e-04       1.04944e-05       3.08768e-15       6.59704e-07       5.77359e-01       1.52816e-01      
 6.75000e-01       1.13924e-04       1.14888e-05       3.11268e-15       7.02622e-07       5.77359e-01       1.58668e-01      
 6.84000e-01       1.20961e-04       1.25459e-05       3.13613e-15       7.46899e-07       5.77359e-01       1.64625e-01      
 6.93000e-01       1.28105e-04       1.36669e-05       3.15811e-15       7.92504e-07       5.77359e-01       1.70677e-01      
 7.02000e-01       1.35334e-04       1.48526e-05       3.17870e-15       8.39408e-07       5.77359e-01       1.76816e-01      
 7.11000e-01       1.42628e-04       1.61036e-05       3.19800e-15       8.87578e-07       5.77359e-01       1.83035e-01      
 7.20000e-01       1.49966e-04       1.74205e-05       3.21608e-15       9.36979e-07       5.77359e-01       1.89326e-01      
 7.29000e-01       1.57329e-04       1.88035e-05       3.23302e-15       9.87577e-07       5.77359e-01       1.95680e-01      
 7.38000e-01       1.64699e-04       2.02529e-05       3.24890e-15       1.03934e-06       5.77359e-01       2.02092e-01      
 7.47000e-01       1.72059e-04       2.17685e-05       3.26379e-15       1.09222e-06       5.77359e-01       2.08553e-01      
 7.56000e-01       1.79394e-04       2.33503e-05       3.27776e-15       1.14620e-06       5.77359e-01       2.15057e-01      
 7.65000e-01       1.86690e-04       2.49979e-05       3.29087e-15       1.20123e-06       5.77359e-01       2.21598e-01      
 7.74000e-01       1.93934e-04       2.67109e-05       3.30319e-15       1.25728e-06       5.77359e-01       2.28170e-01      
 7.83000e-01       2.01116e-04       2.84889e-05       3.31476e-15       1.31433e-06       5.77359e-01       2.34766e-01      
 7.92000e-01       2.08226e-04       3.03312e-05       3.32565e-15       1.37233e-06       5.77359e-01       2.41383e-01      
 8.01000e-01       2.15254e-04       3.22370e-05       3.33591e-15       1.43126e-06       5.77359e-01       2.48015e-01      
 8.10000e-01       2.22195e-04       3.42058e-05       3.34558e-15       1.49108e-06       5.77359e-01       2.54657e-01      
 8.19000e-01       2.29041e-04       3.62365e-05       3.35470e-15       1.55178e-06       5.77359e-01       2.61306e-01      
 8.28000e-01       2.35787e-04       3.83284e-05       3.36331e-15       1.61332e-06       5.77359e-01       2.67958e-01      
 8.37000e-01       2.42429e-04       4.04806e-05       3.37146e-15       1.67568e-06       5.77359e-01       2.74610e-01      
 8.46000e-01       2.48964e-04       4.26920e-05       3.37917e-15       1.73883e-06       5.77359e-01       2.81257e-01      
 8.55000e-01       2.55389e-04       4.49618e-05       3.38649e-15       1.80276e-06       5.77359e-01       2.87899e-01      
 8.64000e-01       2.61702e-04       4.72888e-05       3.39343e-15       1.86744e-06       5.77359e-01       2.94531e-01      
 8.73000e-01       2.67902e-04       4.96722e-05       3.40002e-15       1.93285e-06       5.77359e-01       3.01153e-01      
 8.82000e-01       2.73986e-04       5.21108e-05       3.40629e-15       1.99897e-06       5.77359e-01       3.07761e-01      
 8.91000e-01       2.79956e-04       5.46036e-05       3.41227e-15       2.06579e-06       5.77359e-01       3.14355e-01      
 9.00000e-01       2.85811e-04       5.71497e-05       3.41798e-15       2.13329e-06       5.77359e-01       3.20932e-01      
 9.09000e-01       2.91550e-04       5.97479e-05       3.42343e-15       2.20146e-06       5.77359e-01       3.27491e-01      
 9.18000e-01       2.97176e-04       6.23973e-05       3.42864e-15       2.27028e-06       5.77359e-01       3.34031e-01      
 9.27000e-01       3.02687e-04       6.50967e-05       3.43363e-15       2.33974e-06       5.77359e-01       3.40552e-01      
 9.36000e-01       3.08085e-04       6.78452e-05       3.43842e-15       2.40983e-06       5.77359e-01       3.47051e-01      
 9.45000e-01       3.13372e-04       7.06418e-05       3.44301e-15       2.48054e-06       5.77359e-01       3.53529e-01      
 9.54000e-01       3.18547e-04       7.34855e-05       3.44743e-15       2.55185e-06       5.77359e-01       3.59984e-01      
 9.63000e-01       3.23613e-04       7.63752e-05       3.45168e-15       2.62376e-06       5.77359e-01       3.66417e-01      
 9.72000e-01       3.28571e-04       7.93101e-05       3.45578e-15       2.69626e-06       5.77359e-01       3.72827e-01      
 9.81000e-01       3.33422e-04       8.22891e-05       3.45974e-15       2.76935e-06       5.77359e-01       3.79213e-01      
 9.90000e-01       3.38167e-04       8.53112e-05       3.46356e-15       2.84301e-06       5.77359e-01       3.85575e-01      
 9.99000e-01       3.42808e-04       8.83756e-05       3.46726e-15       2.91724e-06       5.77359e-01       3.91914e-01      
 1.00800e+00       3.47347e-04       9.14813e-05       3.47084e-15       2.99204e-06       5.77359e-01       3.98228e-01      
 1.01700e+00       3.51785e-04       9.46273e-05       3.47431e-15       3.06740e-06       5.77359e-01       4.04519e-01      
 1.02600e+00       3.56123e-04       9.78129e-05       3.47768e-15       3.14331e-06       5.77359e-01       4.10785e-01      
 1.03500e+00       3.60363e-04       1.01037e-04       3.48095e-15       3.21978e-06       5.77359e-01       4.17028e-01      
 1.04400e+00       3.64506e-04       1.04299e-04       3.48413e-15       3.29679e-06       5.77359e-01       4.23247e-01      
 1.05300e+00       3.68554e-04       1.07598e-04       3.48723e-15       3.37435e-06       5.77359e-01       4.29443e-01      
 1.06200e+00       3.72509e-04       1.10932e-04       3.49025e-15       3.45246e-06       5.77359e-01       4.35615e-01      
 1.07100e+00       3.76370e-04       1.14302e-04       3.49319e-15       3.53111e-06       5.77359e-01       4.41764e-01      
 1.08000e+00       3.80141e-04       1.17706e-04       3.49607e-15       3.61030e-06       5.77359e-01       4.47890e-01      
 1.08900e+00       3.83822e-04       1.21144e-04       3.49887e-15       3.69003e-06       5.77359e-01       4.53993e-01      
 1.09800e+00       3.87414e-04       1.24615e-04       3.50162e-15       3.77030e-06       5.77359e-01       4.60075e-01      
 1.10700e+00       3.90919e-04       1.28117e-04       3.50430e-15       3.85111e-06       5.77359e-01       4.66134e-01      
 1.11600e+00       3.94338e-04       1.31651e-04       3.50694e-15       3.93246e-06       5.77359e-01       4.72171e-01      
 1.12500e+00       3.97673e-04       1.35215e-04       3.50951e-15       4.01436e-06       5.77359e-01       4.78188e-01      
 1.13400e+00       4.00924e-04       1.38808e-04       3.51204e-15       4.09679e-06       5.77359e-01       4.84183e-01      
 1.14300e+00       4.04093e-04       1.42431e-04       3.51453e-15       4.17977e-06       5.77359e-01       4.90158e-01      
 1.15200e+00       4.07181e-04       1.46081e-04       3.51697e-15       4.26330e-06       5.77359e-01       4.96113e-01      
 1.16100e+00       4.10189e-04       1.49760e-04       3.51937e-15       4.34737e-06       5.77359e-01       5.02048e-01      
 1.17000e+00       4.13118e-04       1.53464e-04       3.52173e-15       4.43199e-06       5.77359e-01       5.07963e-01      
 1.17900e+00       4.15969e-04       1.57195e-04       3.52405e-15       4.51717e-06       5.77359e-01       5.13860e-01      
 1.18800e+00       4.18744e-04       1.60951e-04       3.52634e-15       4.60290e-06       5.77359e-01       5.19738e-01      
 1.19700e+00       4.21443e-04       1.64732e-04       3.52859e-15       4.68919e-06       5.77359e-01       5.25598e-01      
 1.20600e+00       4.24068e-04       1.68537e-04       3.53081e-15       4.77605e-06       5.77359e-01       5.31440e-01      
 1.21500e+00       4.26619e-04       1.72365e-04       3.53301e-15       4.86347e-06       5.77359e-01       5.37265e-01      
 1.22400e+00       4.29097e-04       1.76215e-04       3.53518e-15       4.95146e-06       5.77359e-01       5.43073e-01      
 1.23300e+00       4.31504e-04       1.80088e-04       3.53732e-15       5.04003e-06       5.77359e-01       5.48865e-01      
 1.24200e+00       4.33841e-04       1.83982e-04       3.53944e-15       5.12918e-06       5.77359e-01       5.54641e-01      
 1.25100e+00       4.36108e-04       1.87897e-04       3.54153e-15       5.21891e-06       5.77359e-01       5.60401e-01      
 1.26000e+00       4.38307e-04       1.91831e-04       3.54360e-15       5.30924e-06       5.77359e-01       5.66146e-01      
 1.26900e+00       4.40438e-04       1.95786e-04       3.54565e-15       5.40016e-06       5.77359e-01       5.71876e-01      
 1.27800e+00       4.42502e-04       1.99759e-04       3.54769e-15       5.49169e-06       5.77359e-01       5.77592e-01      
 1.28700e+00       4.44501e-04       2.03750e-04       3.54970e-15       5.58382e-06       5.77359e-01       5.83293e-01      
 1.29600e+00       4.46435e-04       2.07759e-04       3.55170e-15       5.67657e-06       5.77359e-01       5.88982e-01      
 1.30500e+00       4.48304e-04       2.11786e-04       3.55369e-15       5.76994e-06       5.77359e-01       5.94657e-01      
 1.31400e+00       4.50111e-04       2.15828e-04       3.55566e-15       5.86394e-06       5.77359e-01       6.00319e-01      
 1.32300e+00       4.51855e-04       2.19887e-04       3.55762e-15       5.95858e-06       5.77359e-01       6.05969e-01      
 1.33200e+00       4.53539e-04       2.23961e-04       3.55956e-15       6.05386e-06       5.77359e-01       6.11608e-01      
 1.34100e+00       4.55161e-04       2.28051e-04       3.56150e-15       6.14980e-06       5.77359e-01       6.17234e-01      
 1.35000e+00       4.56724e-04       2.32154e-04       3.56343e-15       6.24639e-06       5.77359e-01       6.22850e-01      
 1.35900e+00       4.58229e-04       2.36271e-04       3.56534e-15       6.34365e-06       5.77359e-01       6.28455e-01      
 1.36800e+00       4.59675e-04       2.40402e-04       3.56725e-15       6.44160e-06       5.77359e-01       6.34049e-01      
 1.37700e+00       4.61065e-04       2.44545e-04       3.56916e-15       6.54023e-06       5.77359e-01       6.39634e-01      
 1.38600e+00       4.62398e-04       2.48700e-04       3.57106e-15       6.63955e-06       5.77359e-01       6.45208e-01      
 1.39500e+00       4.63675e-04       2.52868e-04       3.57295e-15       6.73958e-06       5.77359e-01       6.50774e-01      
