
dc (V)            getData("M0:gm    getData("M0:id    getData("M0:cg    getData("M0:gd    getData("M0:vt    getData("M0:vd

 0.00000e+00       2.71626e-11       9.82509e-13       1.59789e-15       1.26874e-13       5.80071e-01       4.96276e-02      
 9.00000e-03       3.58561e-11       1.25970e-12       1.59390e-15       1.67488e-13       5.80071e-01       4.96276e-02      
 1.80000e-02       4.73311e-11       1.62764e-12       1.59000e-15       2.21100e-13       5.80071e-01       4.96276e-02      
 2.70000e-02       6.24768e-11       2.11517e-12       1.58620e-15       2.91868e-13       5.80071e-01       4.96276e-02      
 3.60000e-02       8.24669e-11       2.76033e-12       1.58248e-15       3.85279e-13       5.80071e-01       4.96276e-02      
 4.50000e-02       1.08850e-10       3.61337e-12       1.57885e-15       5.08576e-13       5.80071e-01       4.96276e-02      
 5.40000e-02       1.43667e-10       4.74060e-12       1.57531e-15       6.71314e-13       5.80071e-01       4.96276e-02      
 6.30000e-02       1.89615e-10       6.22951e-12       1.57186e-15       8.86099e-13       5.80071e-01       4.96277e-02      
 7.20000e-02       2.50244e-10       8.19558e-12       1.56851e-15       1.16957e-12       5.80071e-01       4.96277e-02      
 8.10000e-02       3.30242e-10       1.07911e-11       1.56524e-15       1.54366e-12       5.80071e-01       4.96278e-02      
 9.00000e-02       4.35786e-10       1.42171e-11       1.56209e-15       2.03732e-12       5.80071e-01       4.96278e-02      
 9.90000e-02       5.75019e-10       1.87386e-11       1.55904e-15       2.68871e-12       5.80071e-01       4.96279e-02      
 1.08000e-01       7.58671e-10       2.47050e-11       1.55610e-15       3.54816e-12       5.80071e-01       4.96281e-02      
 1.17000e-01       1.00088e-09       3.25772e-11       1.55330e-15       4.68203e-12       5.80071e-01       4.96282e-02      
 1.26000e-01       1.32026e-09       4.29624e-11       1.55065e-15       6.17775e-12       5.80071e-01       4.96285e-02      
 1.35000e-01       1.74132e-09       5.66610e-11       1.54816e-15       8.15055e-12       5.80071e-01       4.96288e-02      
 1.44000e-01       2.29631e-09       7.47273e-11       1.54586e-15       1.07522e-11       5.80071e-01       4.96292e-02      
 1.53000e-01       3.02763e-09       9.85498e-11       1.54378e-15       1.41826e-11       5.80071e-01       4.96297e-02      
 1.62000e-01       3.99101e-09       1.29956e-10       1.54195e-15       1.87047e-11       5.80071e-01       4.96303e-02      
 1.71000e-01       5.25964e-09       1.71351e-10       1.54041e-15       2.46645e-11       5.80071e-01       4.96312e-02      
 1.80000e-01       6.92921e-09       2.25895e-10       1.53917e-15       3.25168e-11       5.80071e-01       4.96324e-02      
 1.89000e-01       9.12539e-09       2.97739e-10       1.53833e-15       4.28586e-11       5.80071e-01       4.96340e-02      
 1.98000e-01       1.20127e-08       3.92334e-10       1.53795e-15       5.64735e-11       5.80071e-01       4.96360e-02      
 2.07000e-01       1.58061e-08       5.16830e-10       1.53814e-15       7.43892e-11       5.80071e-01       4.96387e-02      
 2.16000e-01       2.07861e-08       6.80594e-10       1.53898e-15       9.79511e-11       5.80071e-01       4.96423e-02      
 2.25000e-01       2.73175e-08       8.95884e-10       1.54058e-15       1.28919e-10       5.80071e-01       4.96469e-02      
 2.34000e-01       3.58748e-08       1.17872e-09       1.54309e-15       1.69590e-10       5.80071e-01       4.96530e-02      
 2.43000e-01       4.70721e-08       1.54998e-09       1.54665e-15       2.22959e-10       5.80071e-01       4.96610e-02      
 2.52000e-01       6.17030e-08       2.03688e-09       1.55143e-15       2.92918e-10       5.80071e-01       4.96716e-02      
 2.61000e-01       8.07883e-08       2.67475e-09       1.55762e-15       3.84517e-10       5.80071e-01       4.96853e-02      
 2.70000e-01       1.05636e-07       3.50934e-09       1.56543e-15       5.04281e-10       5.80071e-01       4.97034e-02      
 2.79000e-01       1.37912e-07       4.59976e-09       1.57508e-15       6.60621e-10       5.80071e-01       4.97269e-02      
 2.88000e-01       1.79732e-07       6.02207e-09       1.58682e-15       8.64321e-10       5.80071e-01       4.97575e-02      
 2.97000e-01       2.33755e-07       7.87373e-09       1.60089e-15       1.12915e-09       5.80071e-01       4.97974e-02      
 3.06000e-01       3.03308e-07       1.02791e-08       1.61755e-15       1.47258e-09       5.80071e-01       4.98491e-02      
 3.15000e-01       3.92508e-07       1.33959e-08       1.63705e-15       1.91664e-09       5.80071e-01       4.99160e-02      
 3.24000e-01       5.06408e-07       1.74231e-08       1.65963e-15       2.48887e-09       5.80071e-01       5.00022e-02      
 3.33000e-01       6.51133e-07       2.26099e-08       1.68550e-15       3.22340e-09       5.80071e-01       5.01128e-02      
 3.42000e-01       8.34014e-07       2.92660e-08       1.71486e-15       4.16209e-09       5.80071e-01       5.02543e-02      
 3.51000e-01       1.06370e-06       3.77729e-08       1.74788e-15       5.35561e-09       5.80071e-01       5.04341e-02      
 3.60000e-01       1.35025e-06       4.85963e-08       1.78465e-15       6.86450e-09       5.80071e-01       5.06615e-02      
 3.69000e-01       1.70510e-06       6.22989e-08       1.82525e-15       8.75987e-09       5.80071e-01       5.09470e-02      
 3.78000e-01       2.14105e-06       7.95523e-08       1.86970e-15       1.11237e-08       5.80071e-01       5.13029e-02      
 3.87000e-01       2.67211e-06       1.01149e-07       1.91794e-15       1.40488e-08       5.80071e-01       5.17430e-02      
 3.96000e-01       3.31319e-06       1.28013e-07       1.96987e-15       1.76371e-08       5.80071e-01       5.22824e-02      
 4.05000e-01       4.07979e-06       1.61204e-07       2.02534e-15       2.19985e-08       5.80071e-01       5.29371e-02      
 4.14000e-01       4.98750e-06       2.01922e-07       2.08412e-15       2.72472e-08       5.80071e-01       5.37236e-02      
 4.23000e-01       6.05151e-06       2.51507e-07       2.14595e-15       3.34986e-08       5.80071e-01       5.46581e-02      
 4.32000e-01       7.28607e-06       3.11433e-07       2.21051e-15       4.08646e-08       5.80071e-01       5.57561e-02      
 4.41000e-01       8.70403e-06       3.83293e-07       2.27745e-15       4.94496e-08       5.80071e-01       5.70315e-02      
 4.50000e-01       1.03166e-05       4.68790e-07       2.34637e-15       5.93468e-08       5.80071e-01       5.84958e-02      
 4.59000e-01       1.21330e-05       5.69721e-07       2.41687e-15       7.06352e-08       5.80071e-01       6.01582e-02      
 4.68000e-01       1.41612e-05       6.87957e-07       2.48851e-15       8.33785e-08       5.80071e-01       6.20251e-02      
 4.77000e-01       1.64080e-05       8.25436e-07       2.56085e-15       9.76252e-08       5.80071e-01       6.40999e-02      
 4.86000e-01       1.88795e-05       9.84153e-07       2.63347e-15       1.13410e-07       5.80071e-01       6.63839e-02      
 4.95000e-01       2.15823e-05       1.16616e-06       2.70595e-15       1.30756e-07       5.80071e-01       6.88760e-02      
 5.04000e-01       2.45240e-05       1.37358e-06       2.77789e-15       1.49679e-07       5.80071e-01       7.15741e-02      
 5.13000e-01       2.77133e-05       1.60858e-06       2.84890e-15       1.70191e-07       5.80071e-01       7.44747e-02      
 5.22000e-01       3.11606e-05       1.87346e-06       2.91866e-15       1.92300e-07       5.80071e-01       7.75740e-02      
 5.31000e-01       3.48772e-05       2.17058e-06       2.98686e-15       2.16016e-07       5.80071e-01       8.08681e-02      
 5.40000e-01       3.88755e-05       2.50242e-06       3.05323e-15       2.41352e-07       5.80071e-01       8.43531e-02      
 5.49000e-01       4.31676e-05       2.87158e-06       3.11756e-15       2.68319e-07       5.80071e-01       8.80252e-02      
 5.58000e-01       4.77651e-05       3.28074e-06       3.17965e-15       2.96935e-07       5.80071e-01       9.18809e-02      
 5.67000e-01       5.26780e-05       3.73270e-06       3.23936e-15       3.27216e-07       5.80071e-01       9.59167e-02      
 5.76000e-01       5.79138e-05       4.23034e-06       3.29660e-15       3.59180e-07       5.80071e-01       1.00129e-01      
 5.85000e-01       6.34773e-05       4.77659e-06       3.35129e-15       3.92843e-07       5.80071e-01       1.04515e-01      
 5.94000e-01       6.93700e-05       5.37440e-06       3.40339e-15       4.28222e-07       5.80071e-01       1.09070e-01      
 6.03000e-01       7.55894e-05       6.02673e-06       3.45290e-15       4.65326e-07       5.80071e-01       1.13790e-01      
 6.12000e-01       8.21293e-05       6.73650e-06       3.49984e-15       5.04165e-07       5.80071e-01       1.18670e-01      
 6.21000e-01       8.89800e-05       7.50654e-06       3.54424e-15       5.44740e-07       5.80071e-01       1.23705e-01      
 6.30000e-01       9.61277e-05       8.33959e-06       3.58616e-15       5.87052e-07       5.80071e-01       1.28890e-01      
 6.39000e-01       1.03556e-04       9.23826e-06       3.62568e-15       6.31092e-07       5.80071e-01       1.34217e-01      
 6.48000e-01       1.11244e-04       1.02050e-05       3.66288e-15       6.76847e-07       5.80071e-01       1.39681e-01      
 6.57000e-01       1.19171e-04       1.12420e-05       3.69785e-15       7.24301e-07       5.80071e-01       1.45275e-01      
 6.66000e-01       1.27313e-04       1.23513e-05       3.73070e-15       7.73429e-07       5.80071e-01       1.50990e-01      
 6.75000e-01       1.35643e-04       1.35348e-05       3.76152e-15       8.24206e-07       5.80071e-01       1.56819e-01      
 6.84000e-01       1.44136e-04       1.47940e-05       3.79042e-15       8.76600e-07       5.80071e-01       1.62753e-01      
 6.93000e-01       1.52766e-04       1.61303e-05       3.81751e-15       9.30576e-07       5.80071e-01       1.68786e-01      
 7.02000e-01       1.61505e-04       1.75447e-05       3.84290e-15       9.86098e-07       5.80071e-01       1.74908e-01      
 7.11000e-01       1.70328e-04       1.90382e-05       3.86668e-15       1.04313e-06       5.80071e-01       1.81112e-01      
 7.20000e-01       1.79210e-04       2.06114e-05       3.88895e-15       1.10162e-06       5.80071e-01       1.87390e-01      
 7.29000e-01       1.88127e-04       2.22647e-05       3.90982e-15       1.16153e-06       5.80071e-01       1.93734e-01      
 7.38000e-01       1.97058e-04       2.39983e-05       3.92938e-15       1.22283e-06       5.80071e-01       2.00136e-01      
 7.47000e-01       2.05980e-04       2.58122e-05       3.94772e-15       1.28546e-06       5.80071e-01       2.06590e-01      
 7.56000e-01       2.14875e-04       2.77063e-05       3.96491e-15       1.34938e-06       5.80071e-01       2.13088e-01      
 7.65000e-01       2.23725e-04       2.96803e-05       3.98105e-15       1.41456e-06       5.80071e-01       2.19625e-01      
 7.74000e-01       2.32516e-04       3.17337e-05       3.99620e-15       1.48095e-06       5.80071e-01       2.26194e-01      
 7.83000e-01       2.41232e-04       3.38658e-05       4.01044e-15       1.54852e-06       5.80071e-01       2.32790e-01      
 7.92000e-01       2.49862e-04       3.60760e-05       4.02383e-15       1.61721e-06       5.80071e-01       2.39407e-01      
 8.01000e-01       2.58395e-04       3.83635e-05       4.03643e-15       1.68700e-06       5.80071e-01       2.46040e-01      
 8.10000e-01       2.66822e-04       4.07272e-05       4.04831e-15       1.75786e-06       5.80071e-01       2.52684e-01      
 8.19000e-01       2.75134e-04       4.31662e-05       4.05951e-15       1.82974e-06       5.80071e-01       2.59337e-01      
 8.28000e-01       2.83326e-04       4.56795e-05       4.07009e-15       1.90261e-06       5.80071e-01       2.65993e-01      
 8.37000e-01       2.91391e-04       4.82660e-05       4.08009e-15       1.97645e-06       5.80071e-01       2.72649e-01      
 8.46000e-01       2.99326e-04       5.09244e-05       4.08956e-15       2.05123e-06       5.80071e-01       2.79302e-01      
 8.55000e-01       3.07126e-04       5.36536e-05       4.09852e-15       2.12692e-06       5.80071e-01       2.85950e-01      
 8.64000e-01       3.14790e-04       5.64524e-05       4.10703e-15       2.20349e-06       5.80071e-01       2.92589e-01      
 8.73000e-01       3.22315e-04       5.93196e-05       4.11512e-15       2.28092e-06       5.80071e-01       2.99218e-01      
 8.82000e-01       3.29701e-04       6.22538e-05       4.12281e-15       2.35919e-06       5.80071e-01       3.05834e-01      
 8.91000e-01       3.36946e-04       6.52539e-05       4.13013e-15       2.43828e-06       5.80071e-01       3.12436e-01      
 9.00000e-01       3.44050e-04       6.83185e-05       4.13712e-15       2.51816e-06       5.80071e-01       3.19022e-01      
 9.09000e-01       3.51013e-04       7.14464e-05       4.14379e-15       2.59883e-06       5.80071e-01       3.25590e-01      
 9.18000e-01       3.57837e-04       7.46363e-05       4.15016e-15       2.68027e-06       5.80071e-01       3.32139e-01      
 9.27000e-01       3.64521e-04       7.78870e-05       4.15627e-15       2.76245e-06       5.80071e-01       3.38669e-01      
 9.36000e-01       3.71067e-04       8.11972e-05       4.16212e-15       2.84537e-06       5.80071e-01       3.45178e-01      
 9.45000e-01       3.77475e-04       8.45657e-05       4.16774e-15       2.92902e-06       5.80071e-01       3.51666e-01      
 9.54000e-01       3.83749e-04       8.79912e-05       4.17315e-15       3.01337e-06       5.80071e-01       3.58132e-01      
 9.63000e-01       3.89888e-04       9.14726e-05       4.17835e-15       3.09843e-06       5.80071e-01       3.64575e-01      
 9.72000e-01       3.95894e-04       9.50087e-05       4.18335e-15       3.18417e-06       5.80071e-01       3.70995e-01      
 9.81000e-01       4.01770e-04       9.85982e-05       4.18819e-15       3.27061e-06       5.80071e-01       3.77392e-01      
 9.90000e-01       4.07517e-04       1.02240e-04       4.19286e-15       3.35771e-06       5.80071e-01       3.83765e-01      
 9.99000e-01       4.13136e-04       1.05933e-04       4.19737e-15       3.44548e-06       5.80071e-01       3.90115e-01      
 1.00800e+00       4.18631e-04       1.09676e-04       4.20174e-15       3.53392e-06       5.80071e-01       3.96440e-01      
 1.01700e+00       4.24001e-04       1.13468e-04       4.20598e-15       3.62301e-06       5.80071e-01       4.02742e-01      
 1.02600e+00       4.29250e-04       1.17307e-04       4.21008e-15       3.71275e-06       5.80071e-01       4.09020e-01      
 1.03500e+00       4.34378e-04       1.21194e-04       4.21408e-15       3.80314e-06       5.80071e-01       4.15274e-01      
 1.04400e+00       4.39389e-04       1.25125e-04       4.21796e-15       3.89417e-06       5.80071e-01       4.21505e-01      
 1.05300e+00       4.44283e-04       1.29102e-04       4.22173e-15       3.98584e-06       5.80071e-01       4.27712e-01      
 1.06200e+00       4.49062e-04       1.33122e-04       4.22541e-15       4.07815e-06       5.80071e-01       4.33896e-01      
 1.07100e+00       4.53728e-04       1.37184e-04       4.22900e-15       4.17109e-06       5.80071e-01       4.40057e-01      
 1.08000e+00       4.58283e-04       1.41288e-04       4.23250e-15       4.26467e-06       5.80071e-01       4.46195e-01      
 1.08900e+00       4.62729e-04       1.45433e-04       4.23592e-15       4.35888e-06       5.80071e-01       4.52311e-01      
 1.09800e+00       4.67066e-04       1.49617e-04       4.23927e-15       4.45373e-06       5.80071e-01       4.58404e-01      
 1.10700e+00       4.71297e-04       1.53839e-04       4.24254e-15       4.54921e-06       5.80071e-01       4.64475e-01      
 1.11600e+00       4.75423e-04       1.58100e-04       4.24575e-15       4.64532e-06       5.80071e-01       4.70525e-01      
 1.12500e+00       4.79446e-04       1.62396e-04       4.24889e-15       4.74207e-06       5.80071e-01       4.76554e-01      
 1.13400e+00       4.83367e-04       1.66729e-04       4.25197e-15       4.83946e-06       5.80071e-01       4.82562e-01      
 1.14300e+00       4.87188e-04       1.71096e-04       4.25499e-15       4.93748e-06       5.80071e-01       4.88550e-01      
 1.15200e+00       4.90910e-04       1.75498e-04       4.25796e-15       5.03615e-06       5.80071e-01       4.94517e-01      
 1.16100e+00       4.94534e-04       1.79932e-04       4.26088e-15       5.13546e-06       5.80071e-01       5.00465e-01      
 1.17000e+00       4.98063e-04       1.84399e-04       4.26375e-15       5.23542e-06       5.80071e-01       5.06394e-01      
 1.17900e+00       5.01496e-04       1.88897e-04       4.26658e-15       5.33602e-06       5.80071e-01       5.12304e-01      
 1.18800e+00       5.04837e-04       1.93425e-04       4.26936e-15       5.43728e-06       5.80071e-01       5.18195e-01      
 1.19700e+00       5.08085e-04       1.97983e-04       4.27211e-15       5.53920e-06       5.80071e-01       5.24069e-01      
 1.20600e+00       5.11243e-04       2.02570e-04       4.27481e-15       5.64178e-06       5.80071e-01       5.29925e-01      
 1.21500e+00       5.14311e-04       2.07185e-04       4.27748e-15       5.74503e-06       5.80071e-01       5.35763e-01      
 1.22400e+00       5.17290e-04       2.11827e-04       4.28012e-15       5.84895e-06       5.80071e-01       5.41585e-01      
 1.23300e+00       5.20183e-04       2.16495e-04       4.28272e-15       5.95355e-06       5.80071e-01       5.47391e-01      
 1.24200e+00       5.22990e-04       2.21190e-04       4.28530e-15       6.05883e-06       5.80071e-01       5.53181e-01      
 1.25100e+00       5.25713e-04       2.25909e-04       4.28785e-15       6.16481e-06       5.80071e-01       5.58955e-01      
 1.26000e+00       5.28352e-04       2.30652e-04       4.29037e-15       6.27148e-06       5.80071e-01       5.64714e-01      
 1.26900e+00       5.30909e-04       2.35418e-04       4.29286e-15       6.37885e-06       5.80071e-01       5.70459e-01      
 1.27800e+00       5.33385e-04       2.40208e-04       4.29533e-15       6.48694e-06       5.80071e-01       5.76190e-01      
 1.28700e+00       5.35781e-04       2.45019e-04       4.29779e-15       6.59574e-06       5.80071e-01       5.81906e-01      
 1.29600e+00       5.38098e-04       2.49851e-04       4.30022e-15       6.70528e-06       5.80071e-01       5.87610e-01      
 1.30500e+00       5.40338e-04       2.54704e-04       4.30263e-15       6.81554e-06       5.80071e-01       5.93300e-01      
 1.31400e+00       5.42501e-04       2.59577e-04       4.30502e-15       6.92655e-06       5.80071e-01       5.98978e-01      
 1.32300e+00       5.44588e-04       2.64468e-04       4.30740e-15       7.03832e-06       5.80071e-01       6.04643e-01      
 1.33200e+00       5.46601e-04       2.69379e-04       4.30977e-15       7.15084e-06       5.80071e-01       6.10297e-01      
 1.34100e+00       5.48541e-04       2.74307e-04       4.31212e-15       7.26414e-06       5.80071e-01       6.15940e-01      
 1.35000e+00       5.50408e-04       2.79252e-04       4.31446e-15       7.37822e-06       5.80071e-01       6.21571e-01      
 1.35900e+00       5.52204e-04       2.84214e-04       4.31679e-15       7.49309e-06       5.80071e-01       6.27192e-01      
 1.36800e+00       5.53930e-04       2.89191e-04       4.31911e-15       7.60876e-06       5.80071e-01       6.32803e-01      
 1.37700e+00       5.55587e-04       2.94184e-04       4.32142e-15       7.72525e-06       5.80071e-01       6.38403e-01      
 1.38600e+00       5.57175e-04       2.99191e-04       4.32373e-15       7.84256e-06       5.80071e-01       6.43995e-01      
 1.39500e+00       5.58696e-04       3.04213e-04       4.32603e-15       7.96070e-06       5.80071e-01       6.49577e-01      
