
dc (V)            getData("M0:gm    getData("M0:id    getData("M0:cg    getData("M0:gd    getData("M0:vt    getData("M0:vd    getData("M0:vt

 0.00000e+00       8.12360e-13       4.38226e-14       4.34806e-15       5.70586e-16       4.85672e-01       3.92645e-02       4.85672e-01      
 9.00000e-03       1.08949e-12       5.14336e-14       4.33018e-15       7.65332e-16       4.85672e-01       3.92645e-02       4.85672e-01      
 1.80000e-02       1.46107e-12       6.20403e-14       4.31306e-15       1.02651e-15       4.85672e-01       3.92646e-02       4.85672e-01      
 2.70000e-02       1.95925e-12       7.66218e-14       4.29675e-15       1.37674e-15       4.85672e-01       3.92646e-02       4.85672e-01      
 3.60000e-02       2.62708e-12       9.64943e-14       4.28132e-15       1.84638e-15       4.85672e-01       3.92647e-02       4.85672e-01      
 4.50000e-02       3.52222e-12       1.23424e-13       4.26683e-15       2.47606e-15       4.85672e-01       3.92648e-02       4.85672e-01      
 5.40000e-02       4.72185e-12       1.59782e-13       4.25338e-15       3.32025e-15       4.85672e-01       3.92649e-02       4.85672e-01      
 6.30000e-02       6.32924e-12       2.08746e-13       4.24110e-15       4.45187e-15       4.85672e-01       3.92651e-02       4.85672e-01      
 7.20000e-02       8.48255e-12       2.74572e-13       4.23011e-15       5.96859e-15       4.85672e-01       3.92654e-02       4.85672e-01      
 8.10000e-02       1.13664e-11       3.62961e-13       4.22062e-15       8.00112e-15       4.85672e-01       3.92657e-02       4.85672e-01      
 9.00000e-02       1.52277e-11       4.81545e-13       4.21282e-15       1.07243e-14       4.85672e-01       3.92662e-02       4.85672e-01      
 9.90000e-02       2.03957e-11       6.40531e-13       4.20701e-15       1.43721e-14       4.85672e-01       3.92668e-02       4.85672e-01      
 1.08000e-01       2.73100e-11       8.53563e-13       4.20350e-15       1.92571e-14       4.85672e-01       3.92676e-02       4.85672e-01      
 1.17000e-01       3.65562e-11       1.13887e-12       4.20268e-15       2.57967e-14       4.85672e-01       3.92687e-02       4.85672e-01      
 1.26000e-01       4.89124e-11       1.52079e-12       4.20492e-15       3.45482e-14       4.85672e-01       3.92701e-02       4.85672e-01      
 1.35000e-01       6.54121e-11       2.03174e-12       4.21075e-15       4.62539e-14       4.85672e-01       3.92721e-02       4.85672e-01      
 1.44000e-01       8.74295e-11       2.71494e-12       4.22095e-15       6.19026e-14       4.85672e-01       3.92747e-02       4.85672e-01      
 1.53000e-01       1.16782e-10       3.62785e-12       4.23630e-15       8.28091e-14       4.85672e-01       3.92782e-02       4.85672e-01      
 1.62000e-01       1.55873e-10       4.84683e-12       4.25768e-15       1.10720e-13       4.85672e-01       3.92828e-02       4.85672e-01      
 1.71000e-01       2.07866e-10       6.47317e-12       4.28609e-15       1.47948e-13       4.85672e-01       3.92890e-02       4.85672e-01      
 1.80000e-01       2.76918e-10       8.64088e-12       4.32266e-15       1.97555e-13       4.85672e-01       3.92973e-02       4.85672e-01      
 1.89000e-01       3.68470e-10       1.15270e-11       4.36864e-15       2.63576e-13       4.85672e-01       3.93083e-02       4.85672e-01      
 1.98000e-01       4.89612e-10       1.53646e-11       4.42539e-15       3.51319e-13       4.85672e-01       3.93229e-02       4.85672e-01      
 2.07000e-01       6.49537e-10       2.04597e-11       4.49436e-15       4.67738e-13       4.85672e-01       3.93423e-02       4.85672e-01      
 2.16000e-01       8.60102e-10       2.72126e-11       4.57704e-15       6.21905e-13       4.85672e-01       3.93679e-02       4.85672e-01      
 2.25000e-01       1.13649e-09       3.61450e-11       4.67494e-15       8.25594e-13       4.85672e-01       3.94018e-02       4.85672e-01      
 2.34000e-01       1.49802e-09       4.79329e-11       4.78955e-15       1.09400e-12       4.85672e-01       3.94465e-02       4.85672e-01      
 2.43000e-01       1.96901e-09       6.34483e-11       4.92226e-15       1.44658e-12       4.85672e-01       3.95051e-02       4.85672e-01      
 2.52000e-01       2.57986e-09       8.38086e-11       5.07432e-15       1.90808e-12       4.85672e-01       3.95817e-02       4.85672e-01      
 2.61000e-01       3.36809e-09       1.10436e-10       5.24677e-15       2.50963e-12       4.85672e-01       3.96815e-02       4.85672e-01      
 2.70000e-01       4.37946e-09       1.45128e-10       5.44038e-15       3.28999e-12       4.85672e-01       3.98108e-02       4.85672e-01      
 2.79000e-01       5.66910e-09       1.90133e-10       5.65565e-15       4.29677e-12       4.85672e-01       3.99774e-02       4.85672e-01      
 2.88000e-01       7.30237e-09       2.48243e-10       5.89272e-15       5.58762e-12       4.85672e-01       4.01905e-02       4.85672e-01      
 2.97000e-01       9.35561e-09       3.22889e-10       6.15136e-15       7.23114e-12       4.85672e-01       4.04611e-02       4.85672e-01      
 3.06000e-01       1.19164e-08       4.18235e-10       6.43098e-15       9.30741e-12       4.85672e-01       4.08020e-02       4.85672e-01      
 3.15000e-01       1.50832e-08       5.39288e-10       6.73061e-15       1.19078e-11       4.85672e-01       4.12271e-02       4.85672e-01      
 3.24000e-01       1.89647e-08       6.91986e-10       7.04891e-15       1.51342e-11       4.85672e-01       4.17520e-02       4.85672e-01      
 3.33000e-01       2.36775e-08       8.83284e-10       7.38423e-15       1.90969e-11       4.85672e-01       4.23930e-02       4.85672e-01      
 3.42000e-01       2.93440e-08       1.12121e-09       7.73460e-15       2.39118e-11       4.85672e-01       4.31664e-02       4.85672e-01      
 3.51000e-01       3.60881e-08       1.41492e-09       8.09782e-15       2.96967e-11       4.85672e-01       4.40882e-02       4.85672e-01      
 3.60000e-01       4.40320e-08       1.77466e-09       8.47147e-15       3.65671e-11       4.85672e-01       4.51729e-02       4.85672e-01      
 3.69000e-01       5.32914e-08       2.21175e-09       8.85301e-15       4.46317e-11       4.85672e-01       4.64332e-02       4.85672e-01      
 3.78000e-01       6.39727e-08       2.73854e-09       9.23983e-15       5.39893e-11       4.85672e-01       4.78790e-02       4.85672e-01      
 3.87000e-01       7.61720e-08       3.36826e-09       9.62930e-15       6.47251e-11       4.85672e-01       4.95174e-02       4.85672e-01      
 3.96000e-01       8.99755e-08       4.11496e-09       1.00189e-14       7.69104e-11       4.85672e-01       5.13527e-02       4.85672e-01      
 4.05000e-01       1.05463e-07       4.99347e-09       1.04060e-14       9.06024e-11       4.85672e-01       5.33868e-02       4.85672e-01      
 4.14000e-01       1.22713e-07       6.01928e-09       1.07886e-14       1.05846e-10       4.85672e-01       5.56191e-02       4.85672e-01      
 4.23000e-01       1.41807e-07       7.20862e-09       1.11643e-14       1.22675e-10       4.85672e-01       5.80479e-02       4.85672e-01      
 4.32000e-01       1.62832e-07       8.57848e-09       1.15314e-14       1.41117e-10       4.85672e-01       6.06703e-02       4.85672e-01      
 4.41000e-01       1.85886e-07       1.01467e-08       1.18882e-14       1.61196e-10       4.85672e-01       6.34831e-02       4.85672e-01      
 4.50000e-01       2.11076e-07       1.19320e-08       1.22334e-14       1.82931e-10       4.85672e-01       6.64831e-02       4.85672e-01      
 4.59000e-01       2.38514e-07       1.39540e-08       1.25659e-14       2.06345e-10       4.85672e-01       6.96671e-02       4.85672e-01      
 4.68000e-01       2.68311e-07       1.62337e-08       1.28848e-14       2.31456e-10       4.85672e-01       7.30325e-02       4.85672e-01      
 4.77000e-01       3.00579e-07       1.87925e-08       1.31895e-14       2.58288e-10       4.85672e-01       7.65768e-02       4.85672e-01      
 4.86000e-01       3.35413e-07       2.16534e-08       1.34796e-14       2.86860e-10       4.85672e-01       8.02977e-02       4.85672e-01      
 4.95000e-01       3.72898e-07       2.48397e-08       1.37550e-14       3.17193e-10       4.85672e-01       8.41930e-02       4.85672e-01      
 5.04000e-01       4.13096e-07       2.83756e-08       1.40157e-14       3.49307e-10       4.85672e-01       8.82606e-02       4.85672e-01      
 5.13000e-01       4.56045e-07       3.22857e-08       1.42618e-14       3.83217e-10       4.85672e-01       9.24979e-02       4.85672e-01      
 5.22000e-01       5.01757e-07       3.65948e-08       1.44935e-14       4.18936e-10       4.85672e-01       9.69022e-02       4.85672e-01      
 5.31000e-01       5.50218e-07       4.13278e-08       1.47114e-14       4.56474e-10       4.85672e-01       1.01470e-01       4.85672e-01      
 5.40000e-01       6.01385e-07       4.65093e-08       1.49159e-14       4.95834e-10       4.85672e-01       1.06199e-01       4.85672e-01      
 5.49000e-01       6.55192e-07       5.21632e-08       1.51075e-14       5.37016e-10       4.85672e-01       1.11084e-01       4.85672e-01      
 5.58000e-01       7.11549e-07       5.83130e-08       1.52868e-14       5.80013e-10       4.85672e-01       1.16120e-01       4.85672e-01      
 5.67000e-01       7.70346e-07       6.49811e-08       1.54543e-14       6.24817e-10       4.85672e-01       1.21304e-01       4.85672e-01      
 5.76000e-01       8.31456e-07       7.21889e-08       1.56109e-14       6.71412e-10       4.85672e-01       1.26629e-01       4.85672e-01      
 5.85000e-01       8.94738e-07       7.99567e-08       1.57570e-14       7.19779e-10       4.85672e-01       1.32090e-01       4.85672e-01      
 5.94000e-01       9.60044e-07       8.83032e-08       1.58934e-14       7.69897e-10       4.85672e-01       1.37682e-01       4.85672e-01      
 6.03000e-01       1.02722e-06       9.72460e-08       1.60205e-14       8.21741e-10       4.85672e-01       1.43398e-01       4.85672e-01      
 6.12000e-01       1.09610e-06       1.06801e-07       1.61392e-14       8.75284e-10       4.85672e-01       1.49232e-01       4.85672e-01      
 6.21000e-01       1.16653e-06       1.16983e-07       1.62498e-14       9.30497e-10       4.85672e-01       1.55178e-01       4.85672e-01      
 6.30000e-01       1.23835e-06       1.27806e-07       1.63531e-14       9.87351e-10       4.85672e-01       1.61231e-01       4.85672e-01      
 6.39000e-01       1.31142e-06       1.39280e-07       1.64494e-14       1.04581e-09       4.85672e-01       1.67384e-01       4.85672e-01      
 6.48000e-01       1.38559e-06       1.51418e-07       1.65394e-14       1.10586e-09       4.85672e-01       1.73632e-01       4.85672e-01      
 6.57000e-01       1.46071e-06       1.64227e-07       1.66235e-14       1.16745e-09       4.85672e-01       1.79969e-01       4.85672e-01      
 6.66000e-01       1.53667e-06       1.77716e-07       1.67021e-14       1.23056e-09       4.85672e-01       1.86390e-01       4.85672e-01      
 6.75000e-01       1.61334e-06       1.91892e-07       1.67756e-14       1.29517e-09       4.85672e-01       1.92889e-01       4.85672e-01      
 6.84000e-01       1.69061e-06       2.06760e-07       1.68445e-14       1.36123e-09       4.85672e-01       1.99463e-01       4.85672e-01      
 6.93000e-01       1.76837e-06       2.22327e-07       1.69091e-14       1.42874e-09       4.85672e-01       2.06105e-01       4.85672e-01      
 7.02000e-01       1.84655e-06       2.38595e-07       1.69697e-14       1.49766e-09       4.85672e-01       2.12813e-01       4.85672e-01      
 7.11000e-01       1.92505e-06       2.55568e-07       1.70266e-14       1.56797e-09       4.85672e-01       2.19582e-01       4.85672e-01      
 7.20000e-01       2.00381e-06       2.73249e-07       1.70801e-14       1.63966e-09       4.85672e-01       2.26407e-01       4.85672e-01      
 7.29000e-01       2.08274e-06       2.91639e-07       1.71305e-14       1.71269e-09       4.85672e-01       2.33287e-01       4.85672e-01      
 7.38000e-01       2.16180e-06       3.10740e-07       1.71780e-14       1.78706e-09       4.85672e-01       2.40217e-01       4.85672e-01      
 7.47000e-01       2.24092e-06       3.30553e-07       1.72229e-14       1.86275e-09       4.85672e-01       2.47195e-01       4.85672e-01      
 7.56000e-01       2.32007e-06       3.51079e-07       1.72653e-14       1.93975e-09       4.85672e-01       2.54217e-01       4.85672e-01      
 7.65000e-01       2.39919e-06       3.72316e-07       1.73054e-14       2.01804e-09       4.85672e-01       2.61282e-01       4.85672e-01      
 7.74000e-01       2.47826e-06       3.94265e-07       1.73435e-14       2.09761e-09       4.85672e-01       2.68386e-01       4.85672e-01      
 7.83000e-01       2.55724e-06       4.16925e-07       1.73795e-14       2.17846e-09       4.85672e-01       2.75528e-01       4.85672e-01      
 7.92000e-01       2.63610e-06       4.40296e-07       1.74138e-14       2.26058e-09       4.85672e-01       2.82707e-01       4.85672e-01      
 8.01000e-01       2.71481e-06       4.64375e-07       1.74465e-14       2.34397e-09       4.85672e-01       2.89919e-01       4.85672e-01      
 8.10000e-01       2.79335e-06       4.89162e-07       1.74776e-14       2.42861e-09       4.85672e-01       2.97164e-01       4.85672e-01      
 8.19000e-01       2.87170e-06       5.14655e-07       1.75072e-14       2.51452e-09       4.85672e-01       3.04440e-01       4.85672e-01      
 8.28000e-01       2.94984e-06       5.40853e-07       1.75356e-14       2.60169e-09       4.85672e-01       3.11745e-01       4.85672e-01      
 8.37000e-01       3.02775e-06       5.67752e-07       1.75627e-14       2.69011e-09       4.85672e-01       3.19080e-01       4.85672e-01      
 8.46000e-01       3.10543e-06       5.95351e-07       1.75886e-14       2.77980e-09       4.85672e-01       3.26441e-01       4.85672e-01      
 8.55000e-01       3.18285e-06       6.23649e-07       1.76135e-14       2.87076e-09       4.85672e-01       3.33829e-01       4.85672e-01      
 8.64000e-01       3.26000e-06       6.52641e-07       1.76374e-14       2.96298e-09       4.85672e-01       3.41243e-01       4.85672e-01      
 8.73000e-01       3.33687e-06       6.82327e-07       1.76604e-14       3.05649e-09       4.85672e-01       3.48681e-01       4.85672e-01      
 8.82000e-01       3.41345e-06       7.12703e-07       1.76825e-14       3.15128e-09       4.85672e-01       3.56143e-01       4.85672e-01      
 8.91000e-01       3.48972e-06       7.43767e-07       1.77038e-14       3.24736e-09       4.85672e-01       3.63629e-01       4.85672e-01      
 9.00000e-01       3.56569e-06       7.75516e-07       1.77244e-14       3.34474e-09       4.85672e-01       3.71138e-01       4.85672e-01      
 9.09000e-01       3.64133e-06       8.07948e-07       1.77442e-14       3.44344e-09       4.85672e-01       3.78669e-01       4.85672e-01      
 9.18000e-01       3.71663e-06       8.41058e-07       1.77634e-14       3.54346e-09       4.85672e-01       3.86222e-01       4.85672e-01      
 9.27000e-01       3.79159e-06       8.74845e-07       1.77819e-14       3.64482e-09       4.85672e-01       3.93796e-01       4.85672e-01      
 9.36000e-01       3.86620e-06       9.09304e-07       1.77998e-14       3.74753e-09       4.85672e-01       4.01392e-01       4.85672e-01      
 9.45000e-01       3.94045e-06       9.44434e-07       1.78172e-14       3.85160e-09       4.85672e-01       4.09008e-01       4.85672e-01      
 9.54000e-01       4.01433e-06       9.80230e-07       1.78341e-14       3.95706e-09       4.85672e-01       4.16645e-01       4.85672e-01      
 9.63000e-01       4.08782e-06       1.01669e-06       1.78505e-14       4.06392e-09       4.85672e-01       4.24302e-01       4.85672e-01      
 9.72000e-01       4.16093e-06       1.05381e-06       1.78664e-14       4.17219e-09       4.85672e-01       4.31979e-01       4.85672e-01      
 9.81000e-01       4.23364e-06       1.09158e-06       1.78818e-14       4.28190e-09       4.85672e-01       4.39676e-01       4.85672e-01      
 9.90000e-01       4.30594e-06       1.13001e-06       1.78969e-14       4.39306e-09       4.85672e-01       4.47393e-01       4.85672e-01      
 9.99000e-01       4.37782e-06       1.16909e-06       1.79115e-14       4.50570e-09       4.85672e-01       4.55129e-01       4.85672e-01      
 1.00800e+00       4.44928e-06       1.20881e-06       1.79258e-14       4.61983e-09       4.85672e-01       4.62885e-01       4.85672e-01      
 1.01700e+00       4.52030e-06       1.24917e-06       1.79397e-14       4.73549e-09       4.85672e-01       4.70660e-01       4.85672e-01      
 1.02600e+00       4.59087e-06       1.29017e-06       1.79532e-14       4.85269e-09       4.85672e-01       4.78454e-01       4.85672e-01      
 1.03500e+00       4.66099e-06       1.33180e-06       1.79665e-14       4.97146e-09       4.85672e-01       4.86268e-01       4.85672e-01      
 1.04400e+00       4.73065e-06       1.37406e-06       1.79794e-14       5.09182e-09       4.85672e-01       4.94101e-01       4.85672e-01      
 1.05300e+00       4.79984e-06       1.41695e-06       1.79920e-14       5.21381e-09       4.85672e-01       5.01953e-01       4.85672e-01      
 1.06200e+00       4.86854e-06       1.46046e-06       1.80044e-14       5.33746e-09       4.85672e-01       5.09824e-01       4.85672e-01      
 1.07100e+00       4.93675e-06       1.50458e-06       1.80164e-14       5.46278e-09       4.85672e-01       5.17714e-01       4.85672e-01      
 1.08000e+00       5.00447e-06       1.54931e-06       1.80282e-14       5.58982e-09       4.85672e-01       5.25623e-01       4.85672e-01      
 1.08900e+00       5.07168e-06       1.59466e-06       1.80398e-14       5.71860e-09       4.85672e-01       5.33552e-01       4.85672e-01      
 1.09800e+00       5.13837e-06       1.64060e-06       1.80511e-14       5.84916e-09       4.85672e-01       5.41499e-01       4.85672e-01      
 1.10700e+00       5.20453e-06       1.68714e-06       1.80622e-14       5.98154e-09       4.85672e-01       5.49466e-01       4.85672e-01      
 1.11600e+00       5.27016e-06       1.73428e-06       1.80731e-14       6.11577e-09       4.85672e-01       5.57452e-01       4.85672e-01      
 1.12500e+00       5.33525e-06       1.78200e-06       1.80837e-14       6.25189e-09       4.85672e-01       5.65457e-01       4.85672e-01      
 1.13400e+00       5.39979e-06       1.83031e-06       1.80942e-14       6.38994e-09       4.85672e-01       5.73482e-01       4.85672e-01      
 1.14300e+00       5.46378e-06       1.87920e-06       1.81044e-14       6.52996e-09       4.85672e-01       5.81526e-01       4.85672e-01      
 1.15200e+00       5.52719e-06       1.92865e-06       1.81145e-14       6.67199e-09       4.85672e-01       5.89589e-01       4.85672e-01      
 1.16100e+00       5.59003e-06       1.97868e-06       1.81243e-14       6.81608e-09       4.85672e-01       5.97672e-01       4.85672e-01      
 1.17000e+00       5.65229e-06       2.02927e-06       1.81340e-14       6.96228e-09       4.85672e-01       6.05774e-01       4.85672e-01      
 1.17900e+00       5.71397e-06       2.08042e-06       1.81436e-14       7.11063e-09       4.85672e-01       6.13895e-01       4.85672e-01      
 1.18800e+00       5.77504e-06       2.13212e-06       1.81529e-14       7.26118e-09       4.85672e-01       6.22037e-01       4.85672e-01      
 1.19700e+00       5.83552e-06       2.18437e-06       1.81621e-14       7.41399e-09       4.85672e-01       6.30198e-01       4.85672e-01      
 1.20600e+00       5.89538e-06       2.23715e-06       1.81711e-14       7.56912e-09       4.85672e-01       6.38378e-01       4.85672e-01      
 1.21500e+00       5.95463e-06       2.29048e-06       1.81800e-14       7.72661e-09       4.85672e-01       6.46579e-01       4.85672e-01      
