
dc (V)            getData("M0:gm    getData("M0:id    getData("M0:cg    getData("M0:gd    getData("M0:vt    getData("M0:vd    getData("M0:vt

 0.00000e+00       1.35804e-12       6.06203e-14       2.61163e-15       1.50018e-15       4.88000e-01       3.96675e-02       4.88000e-01      
 9.00000e-03       1.82047e-12       7.39381e-14       2.60111e-15       2.01125e-15       4.88000e-01       3.96675e-02       4.88000e-01      
 1.80000e-02       2.44022e-12       9.21894e-14       2.59103e-15       2.69634e-15       4.88000e-01       3.96676e-02       4.88000e-01      
 2.70000e-02       3.27074e-12       1.17011e-13       2.58141e-15       3.61462e-15       4.88000e-01       3.96676e-02       4.88000e-01      
 3.60000e-02       4.38359e-12       1.50598e-13       2.57230e-15       4.84538e-15       4.88000e-01       3.96677e-02       4.88000e-01      
 4.50000e-02       5.87454e-12       1.95895e-13       2.56372e-15       6.49481e-15       4.88000e-01       3.96678e-02       4.88000e-01      
 5.40000e-02       7.87176e-12       2.56850e-13       2.55574e-15       8.70512e-15       4.88000e-01       3.96679e-02       4.88000e-01      
 6.30000e-02       1.05467e-11       3.38747e-13       2.54842e-15       1.16667e-14       4.88000e-01       3.96681e-02       4.88000e-01      
 7.20000e-02       1.41285e-11       4.48667e-13       2.54184e-15       1.56343e-14       4.88000e-01       3.96683e-02       4.88000e-01      
 8.10000e-02       1.89237e-11       5.96080e-13       2.53611e-15       2.09489e-14       4.88000e-01       3.96687e-02       4.88000e-01      
 9.00000e-02       2.53412e-11       7.93660e-13       2.53134e-15       2.80664e-14       4.88000e-01       3.96691e-02       4.88000e-01      
 9.90000e-02       3.39273e-11       1.05835e-12       2.52769e-15       3.75963e-14       4.88000e-01       3.96697e-02       4.88000e-01      
 1.08000e-01       4.54101e-11       1.41280e-12       2.52534e-15       5.03530e-14       4.88000e-01       3.96705e-02       4.88000e-01      
 1.17000e-01       6.07599e-11       1.88723e-12       2.52451e-15       6.74239e-14       4.88000e-01       3.96715e-02       4.88000e-01      
 1.26000e-01       8.12655e-11       2.52200e-12       2.52540e-15       9.02596e-14       4.88000e-01       3.96729e-02       4.88000e-01      
 1.35000e-01       1.08639e-10       3.37087e-12       2.52832e-15       1.20792e-13       4.88000e-01       3.96747e-02       4.88000e-01      
 1.44000e-01       1.45155e-10       4.50542e-12       2.53371e-15       1.61595e-13       4.88000e-01       3.96772e-02       4.88000e-01      
 1.53000e-01       1.93825e-10       6.02090e-12       2.54201e-15       2.16089e-13       4.88000e-01       3.96805e-02       4.88000e-01      
 1.62000e-01       2.58626e-10       8.04382e-12       2.55372e-15       2.88816e-13       4.88000e-01       3.96849e-02       4.88000e-01      
 1.71000e-01       3.44799e-10       1.07419e-11       2.56941e-15       3.85797e-13       4.88000e-01       3.96908e-02       4.88000e-01      
 1.80000e-01       4.59233e-10       1.43373e-11       2.58972e-15       5.14992e-13       4.88000e-01       3.96986e-02       4.88000e-01      
 1.89000e-01       6.10943e-10       1.91231e-11       2.61537e-15       6.86903e-13       4.88000e-01       3.97090e-02       4.88000e-01      
 1.98000e-01       8.11687e-10       2.54856e-11       2.64714e-15       9.15341e-13       4.88000e-01       3.97229e-02       4.88000e-01      
 2.07000e-01       1.07672e-09       3.39320e-11       2.68587e-15       1.21841e-12       4.88000e-01       3.97412e-02       4.88000e-01      
 2.16000e-01       1.42573e-09       4.51261e-11       2.73242e-15       1.61973e-12       4.88000e-01       3.97656e-02       4.88000e-01      
 2.25000e-01       1.88397e-09       5.99331e-11       2.78769e-15       2.14999e-12       4.88000e-01       3.97977e-02       4.88000e-01      
 2.34000e-01       2.48358e-09       7.94753e-11       2.85253e-15       2.84882e-12       4.88000e-01       3.98400e-02       4.88000e-01      
 2.43000e-01       3.26512e-09       1.05201e-10       2.92780e-15       3.76704e-12       4.88000e-01       3.98956e-02       4.88000e-01      
 2.52000e-01       4.27933e-09       1.38969e-10       3.01422e-15       4.96930e-12       4.88000e-01       3.99683e-02       4.88000e-01      
 2.61000e-01       5.58899e-09       1.83147e-10       3.11245e-15       6.53713e-12       4.88000e-01       4.00631e-02       4.88000e-01      
 2.70000e-01       7.27084e-09       2.40729e-10       3.22298e-15       8.57214e-12       4.88000e-01       4.01859e-02       4.88000e-01      
 2.79000e-01       9.41746e-09       3.15470e-10       3.34613e-15       1.11995e-11       4.88000e-01       4.03444e-02       4.88000e-01      
 2.88000e-01       1.21390e-08       4.12037e-10       3.48204e-15       1.45709e-11       4.88000e-01       4.05474e-02       4.88000e-01      
 2.97000e-01       1.55642e-08       5.36173e-10       3.63063e-15       1.88675e-11       4.88000e-01       4.08056e-02       4.88000e-01      
 3.06000e-01       1.98414e-08       6.94864e-10       3.79160e-15       2.43012e-11       4.88000e-01       4.11314e-02       4.88000e-01      
 3.15000e-01       2.51377e-08       8.96522e-10       3.96444e-15       3.11145e-11       4.88000e-01       4.15386e-02       4.88000e-01      
 3.24000e-01       3.16378e-08       1.15114e-09       4.14843e-15       3.95781e-11       4.88000e-01       4.20425e-02       4.88000e-01      
 3.33000e-01       3.95412e-08       1.47045e-09       4.34264e-15       4.99860e-11       4.88000e-01       4.26595e-02       4.88000e-01      
 3.42000e-01       4.90572e-08       1.86801e-09       4.54597e-15       6.26477e-11       4.88000e-01       4.34060e-02       4.88000e-01      
 3.51000e-01       6.03992e-08       2.35932e-09       4.75714e-15       7.78778e-11       4.88000e-01       4.42983e-02       4.88000e-01      
 3.60000e-01       7.37778e-08       2.96175e-09       4.97480e-15       9.59844e-11       4.88000e-01       4.53515e-02       4.88000e-01      
 3.69000e-01       8.93938e-08       3.69456e-09       5.19746e-15       1.17257e-10       4.88000e-01       4.65789e-02       4.88000e-01      
 3.78000e-01       1.07432e-07       4.57875e-09       5.42361e-15       1.41955e-10       4.88000e-01       4.79912e-02       4.88000e-01      
 3.87000e-01       1.28058e-07       5.63686e-09       5.65171e-15       1.70303e-10       4.88000e-01       4.95964e-02       4.88000e-01      
 3.96000e-01       1.51421e-07       6.89289e-09       5.88025e-15       2.02481e-10       4.88000e-01       5.13995e-02       4.88000e-01      
 4.05000e-01       1.77655e-07       8.37209e-09       6.10777e-15       2.38631e-10       4.88000e-01       5.34028e-02       4.88000e-01      
 4.14000e-01       2.06891e-07       1.01009e-08       6.33290e-15       2.78857e-10       4.88000e-01       5.56065e-02       4.88000e-01      
 4.23000e-01       2.39261e-07       1.21069e-08       6.55438e-15       3.23234e-10       4.88000e-01       5.80089e-02       4.88000e-01      
 4.32000e-01       2.74908e-07       1.44190e-08       6.77108e-15       3.71816e-10       4.88000e-01       6.06073e-02       4.88000e-01      
 4.41000e-01       3.13992e-07       1.70673e-08       6.98202e-15       4.24643e-10       4.88000e-01       6.33985e-02       4.88000e-01      
 4.50000e-01       3.56688e-07       2.00836e-08       7.18634e-15       4.81750e-10       4.88000e-01       6.63791e-02       4.88000e-01      
 4.59000e-01       4.03182e-07       2.35012e-08       7.38338e-15       5.43170e-10       4.88000e-01       6.95458e-02       4.88000e-01      
 4.68000e-01       4.53665e-07       2.73552e-08       7.57259e-15       6.08940e-10       4.88000e-01       7.28957e-02       4.88000e-01      
 4.77000e-01       5.08323e-07       3.16823e-08       7.75358e-15       6.79099e-10       4.88000e-01       7.64261e-02       4.88000e-01      
 4.86000e-01       5.67326e-07       3.65209e-08       7.92609e-15       7.53686e-10       4.88000e-01       8.01347e-02       4.88000e-01      
 4.95000e-01       6.30820e-07       4.19107e-08       8.09000e-15       8.32743e-10       4.88000e-01       8.40191e-02       4.88000e-01      
 5.04000e-01       6.98919e-07       4.78927e-08       8.24528e-15       9.16308e-10       4.88000e-01       8.80771e-02       4.88000e-01      
 5.13000e-01       7.71694e-07       5.45087e-08       8.39198e-15       1.00441e-09       4.88000e-01       9.23061e-02       4.88000e-01      
 5.22000e-01       8.49174e-07       6.18010e-08       8.53026e-15       1.09709e-09       4.88000e-01       9.67035e-02       4.88000e-01      
 5.31000e-01       9.31342e-07       6.98119e-08       8.66034e-15       1.19435e-09       4.88000e-01       1.01266e-01       4.88000e-01      
 5.40000e-01       1.01813e-06       7.85832e-08       8.78247e-15       1.29621e-09       4.88000e-01       1.05990e-01       4.88000e-01      
 5.49000e-01       1.10944e-06       8.81562e-08       8.89696e-15       1.40266e-09       4.88000e-01       1.10872e-01       4.88000e-01      
 5.58000e-01       1.20512e-06       9.85708e-08       9.00415e-15       1.51368e-09       4.88000e-01       1.15907e-01       4.88000e-01      
 5.67000e-01       1.30498e-06       1.09866e-07       9.10440e-15       1.62925e-09       4.88000e-01       1.21091e-01       4.88000e-01      
 5.76000e-01       1.40882e-06       1.22077e-07       9.19806e-15       1.74932e-09       4.88000e-01       1.26417e-01       4.88000e-01      
 5.85000e-01       1.51638e-06       1.35240e-07       9.28552e-15       1.87386e-09       4.88000e-01       1.31881e-01       4.88000e-01      
 5.94000e-01       1.62743e-06       1.49388e-07       9.36715e-15       2.00281e-09       4.88000e-01       1.37477e-01       4.88000e-01      
 6.03000e-01       1.74168e-06       1.64549e-07       9.44330e-15       2.13609e-09       4.88000e-01       1.43198e-01       4.88000e-01      
 6.12000e-01       1.85887e-06       1.80752e-07       9.51434e-15       2.27365e-09       4.88000e-01       1.49039e-01       4.88000e-01      
 6.21000e-01       1.97872e-06       1.98022e-07       9.58062e-15       2.41541e-09       4.88000e-01       1.54994e-01       4.88000e-01      
 6.30000e-01       2.10096e-06       2.16381e-07       9.64246e-15       2.56129e-09       4.88000e-01       1.61056e-01       4.88000e-01      
 6.39000e-01       2.22534e-06       2.35851e-07       9.70017e-15       2.71122e-09       4.88000e-01       1.67220e-01       4.88000e-01      
 6.48000e-01       2.35158e-06       2.56448e-07       9.75406e-15       2.86512e-09       4.88000e-01       1.73479e-01       4.88000e-01      
 6.57000e-01       2.47947e-06       2.78189e-07       9.80441e-15       3.02291e-09       4.88000e-01       1.79828e-01       4.88000e-01      
 6.66000e-01       2.60876e-06       3.01088e-07       9.85147e-15       3.18452e-09       4.88000e-01       1.86261e-01       4.88000e-01      
 6.75000e-01       2.73926e-06       3.25155e-07       9.89551e-15       3.34986e-09       4.88000e-01       1.92774e-01       4.88000e-01      
 6.84000e-01       2.87076e-06       3.50402e-07       9.93674e-15       3.51888e-09       4.88000e-01       1.99361e-01       4.88000e-01      
 6.93000e-01       3.00309e-06       3.76836e-07       9.97538e-15       3.69151e-09       4.88000e-01       2.06018e-01       4.88000e-01      
 7.02000e-01       3.13609e-06       4.04464e-07       1.00116e-14       3.86767e-09       4.88000e-01       2.12740e-01       4.88000e-01      
 7.11000e-01       3.26961e-06       4.33291e-07       1.00457e-14       4.04732e-09       4.88000e-01       2.19523e-01       4.88000e-01      
 7.20000e-01       3.40351e-06       4.63322e-07       1.00777e-14       4.23040e-09       4.88000e-01       2.26364e-01       4.88000e-01      
 7.29000e-01       3.53769e-06       4.94559e-07       1.01078e-14       4.41686e-09       4.88000e-01       2.33258e-01       4.88000e-01      
 7.38000e-01       3.67204e-06       5.27004e-07       1.01363e-14       4.60665e-09       4.88000e-01       2.40202e-01       4.88000e-01      
 7.47000e-01       3.80645e-06       5.60659e-07       1.01631e-14       4.79974e-09       4.88000e-01       2.47193e-01       4.88000e-01      
 7.56000e-01       3.94085e-06       5.95523e-07       1.01884e-14       4.99609e-09       4.88000e-01       2.54229e-01       4.88000e-01      
 7.65000e-01       4.07516e-06       6.31596e-07       1.02124e-14       5.19566e-09       4.88000e-01       2.61306e-01       4.88000e-01      
 7.74000e-01       4.20932e-06       6.68877e-07       1.02351e-14       5.39843e-09       4.88000e-01       2.68423e-01       4.88000e-01      
 7.83000e-01       4.34327e-06       7.07365e-07       1.02566e-14       5.60438e-09       4.88000e-01       2.75577e-01       4.88000e-01      
 7.92000e-01       4.47696e-06       7.47057e-07       1.02771e-14       5.81349e-09       4.88000e-01       2.82766e-01       4.88000e-01      
 8.01000e-01       4.61035e-06       7.87951e-07       1.02965e-14       6.02574e-09       4.88000e-01       2.89988e-01       4.88000e-01      
 8.10000e-01       4.74338e-06       8.30043e-07       1.03151e-14       6.24113e-09       4.88000e-01       2.97242e-01       4.88000e-01      
 8.19000e-01       4.87603e-06       8.73331e-07       1.03328e-14       6.45964e-09       4.88000e-01       3.04527e-01       4.88000e-01      
 8.28000e-01       5.00827e-06       9.17811e-07       1.03497e-14       6.68128e-09       4.88000e-01       3.11839e-01       4.88000e-01      
 8.37000e-01       5.14006e-06       9.63479e-07       1.03658e-14       6.90604e-09       4.88000e-01       3.19180e-01       4.88000e-01      
 8.46000e-01       5.27138e-06       1.01033e-06       1.03813e-14       7.13393e-09       4.88000e-01       3.26546e-01       4.88000e-01      
 8.55000e-01       5.40221e-06       1.05836e-06       1.03961e-14       7.36495e-09       4.88000e-01       3.33938e-01       4.88000e-01      
 8.64000e-01       5.53253e-06       1.10757e-06       1.04103e-14       7.59912e-09       4.88000e-01       3.41355e-01       4.88000e-01      
 8.73000e-01       5.66230e-06       1.15794e-06       1.04240e-14       7.83644e-09       4.88000e-01       3.48795e-01       4.88000e-01      
 8.82000e-01       5.79152e-06       1.20949e-06       1.04372e-14       8.07693e-09       4.88000e-01       3.56258e-01       4.88000e-01      
 8.91000e-01       5.92017e-06       1.26219e-06       1.04498e-14       8.32062e-09       4.88000e-01       3.63743e-01       4.88000e-01      
 9.00000e-01       6.04822e-06       1.31605e-06       1.04620e-14       8.56752e-09       4.88000e-01       3.71249e-01       4.88000e-01      
 9.09000e-01       6.17567e-06       1.37105e-06       1.04738e-14       8.81765e-09       4.88000e-01       3.78777e-01       4.88000e-01      
 9.18000e-01       6.30249e-06       1.42720e-06       1.04852e-14       9.07104e-09       4.88000e-01       3.86325e-01       4.88000e-01      
 9.27000e-01       6.42868e-06       1.48449e-06       1.04962e-14       9.32773e-09       4.88000e-01       3.93894e-01       4.88000e-01      
 9.36000e-01       6.55421e-06       1.54292e-06       1.05069e-14       9.58774e-09       4.88000e-01       4.01482e-01       4.88000e-01      
 9.45000e-01       6.67907e-06       1.60246e-06       1.05172e-14       9.85110e-09       4.88000e-01       4.09090e-01       4.88000e-01      
 9.54000e-01       6.80324e-06       1.66313e-06       1.05273e-14       1.01179e-08       4.88000e-01       4.16717e-01       4.88000e-01      
 9.63000e-01       6.92672e-06       1.72492e-06       1.05370e-14       1.03880e-08       4.88000e-01       4.24362e-01       4.88000e-01      
 9.72000e-01       7.04948e-06       1.78781e-06       1.05464e-14       1.06617e-08       4.88000e-01       4.32027e-01       4.88000e-01      
 9.81000e-01       7.17152e-06       1.85180e-06       1.05556e-14       1.09389e-08       4.88000e-01       4.39710e-01       4.88000e-01      
 9.90000e-01       7.29281e-06       1.91689e-06       1.05645e-14       1.12196e-08       4.88000e-01       4.47411e-01       4.88000e-01      
 9.99000e-01       7.41334e-06       1.98307e-06       1.05732e-14       1.15039e-08       4.88000e-01       4.55130e-01       4.88000e-01      
 1.00800e+00       7.53309e-06       2.05033e-06       1.05817e-14       1.17919e-08       4.88000e-01       4.62868e-01       4.88000e-01      
 1.01700e+00       7.65206e-06       2.11866e-06       1.05900e-14       1.20837e-08       4.88000e-01       4.70623e-01       4.88000e-01      
 1.02600e+00       7.77023e-06       2.18806e-06       1.05980e-14       1.23791e-08       4.88000e-01       4.78396e-01       4.88000e-01      
 1.03500e+00       7.88758e-06       2.25852e-06       1.06059e-14       1.26784e-08       4.88000e-01       4.86187e-01       4.88000e-01      
 1.04400e+00       8.00410e-06       2.33003e-06       1.06135e-14       1.29816e-08       4.88000e-01       4.93996e-01       4.88000e-01      
 1.05300e+00       8.11978e-06       2.40258e-06       1.06210e-14       1.32888e-08       4.88000e-01       5.01823e-01       4.88000e-01      
 1.06200e+00       8.23459e-06       2.47618e-06       1.06284e-14       1.35999e-08       4.88000e-01       5.09667e-01       4.88000e-01      
 1.07100e+00       8.34854e-06       2.55080e-06       1.06355e-14       1.39152e-08       4.88000e-01       5.17529e-01       4.88000e-01      
 1.08000e+00       8.46159e-06       2.62644e-06       1.06425e-14       1.42346e-08       4.88000e-01       5.25409e-01       4.88000e-01      
 1.08900e+00       8.57374e-06       2.70310e-06       1.06494e-14       1.45582e-08       4.88000e-01       5.33306e-01       4.88000e-01      
 1.09800e+00       8.68497e-06       2.78076e-06       1.06561e-14       1.48862e-08       4.88000e-01       5.41222e-01       4.88000e-01      
 1.10700e+00       8.79528e-06       2.85942e-06       1.06627e-14       1.52185e-08       4.88000e-01       5.49154e-01       4.88000e-01      
 1.11600e+00       8.90465e-06       2.93907e-06       1.06691e-14       1.55553e-08       4.88000e-01       5.57105e-01       4.88000e-01      
 1.12500e+00       9.01305e-06       3.01970e-06       1.06755e-14       1.58967e-08       4.88000e-01       5.65074e-01       4.88000e-01      
 1.13400e+00       9.12049e-06       3.10130e-06       1.06817e-14       1.62427e-08       4.88000e-01       5.73060e-01       4.88000e-01      
 1.14300e+00       9.22695e-06       3.18386e-06       1.06878e-14       1.65935e-08       4.88000e-01       5.81064e-01       4.88000e-01      
 1.15200e+00       9.33242e-06       3.26738e-06       1.06937e-14       1.69491e-08       4.88000e-01       5.89087e-01       4.88000e-01      
 1.16100e+00       9.43688e-06       3.35184e-06       1.06996e-14       1.73097e-08       4.88000e-01       5.97127e-01       4.88000e-01      
 1.17000e+00       9.54033e-06       3.43724e-06       1.07053e-14       1.76753e-08       4.88000e-01       6.05185e-01       4.88000e-01      
 1.17900e+00       9.64275e-06       3.52356e-06       1.07110e-14       1.80461e-08       4.88000e-01       6.13262e-01       4.88000e-01      
 1.18800e+00       9.74413e-06       3.61080e-06       1.07166e-14       1.84222e-08       4.88000e-01       6.21357e-01       4.88000e-01      
 1.19700e+00       9.84445e-06       3.69895e-06       1.07220e-14       1.88037e-08       4.88000e-01       6.29470e-01       4.88000e-01      
 1.20600e+00       9.94372e-06       3.78800e-06       1.07274e-14       1.91907e-08       4.88000e-01       6.37602e-01       4.88000e-01      
 1.21500e+00       1.00419e-05       3.87793e-06       1.07327e-14       1.95833e-08       4.88000e-01       6.45752e-01       4.88000e-01      
