
dc (V)            getData("M0:gm    getData("M0:id    getData("M0:cg    getData("M0:gd    getData("M0:vt    getData("M0:vd    getData("M0:vt

 0.00000e+00       1.41396e-11       4.66128e-13       3.44403e-16       6.45817e-14       5.24470e-01       4.76234e-02       5.24470e-01      
 9.00000e-03       1.87954e-11       6.12546e-13       3.43547e-16       8.58543e-14       5.24470e-01       4.76234e-02       5.24470e-01      
 1.80000e-02       2.49832e-11       8.07561e-13       3.42717e-16       1.14131e-13       5.24470e-01       4.76234e-02       5.24470e-01      
 2.70000e-02       3.32066e-11       1.06712e-12       3.41912e-16       1.51715e-13       5.24470e-01       4.76234e-02       5.24470e-01      
 3.60000e-02       4.41345e-11       1.41242e-12       3.41134e-16       2.01670e-13       5.24470e-01       4.76235e-02       5.24470e-01      
 4.50000e-02       5.86549e-11       1.87161e-12       3.40384e-16       2.68061e-13       5.24470e-01       4.76235e-02       5.24470e-01      
 5.40000e-02       7.79469e-11       2.48211e-12       3.39665e-16       3.56292e-13       5.24470e-01       4.76236e-02       5.24470e-01      
 6.30000e-02       1.03575e-10       3.29358e-12       3.38977e-16       4.73537e-13       5.24470e-01       4.76237e-02       5.24470e-01      
 7.20000e-02       1.37617e-10       4.37201e-12       3.38325e-16       6.29322e-13       5.24470e-01       4.76239e-02       5.24470e-01      
 8.10000e-02       1.82826e-10       5.80496e-12       3.37713e-16       8.36295e-13       5.24470e-01       4.76241e-02       5.24470e-01      
 9.00000e-02       2.42855e-10       7.70869e-12       3.37145e-16       1.11124e-12       5.24470e-01       4.76243e-02       5.24470e-01      
 9.90000e-02       3.22543e-10       1.02374e-11       3.36628e-16       1.47643e-12       5.24470e-01       4.76247e-02       5.24470e-01      
 1.08000e-01       4.28303e-10       1.35957e-11       3.36169e-16       1.96139e-12       5.24470e-01       4.76251e-02       5.24470e-01      
 1.17000e-01       5.68620e-10       1.80548e-11       3.35779e-16       2.60528e-12       5.24470e-01       4.76258e-02       5.24470e-01      
 1.26000e-01       7.54712e-10       2.39740e-11       3.35466e-16       3.45999e-12       5.24470e-01       4.76266e-02       5.24470e-01      
 1.35000e-01       1.00136e-09       3.18291e-11       3.35236e-16       4.59417e-12       5.24470e-01       4.76276e-02       5.24470e-01      
 1.44000e-01       1.32813e-09       4.22494e-11       3.35116e-16       6.09867e-12       5.24470e-01       4.76291e-02       5.24470e-01      
 1.53000e-01       1.76083e-09       5.60674e-11       3.35126e-16       8.09360e-12       5.24470e-01       4.76310e-02       5.24470e-01      
 1.62000e-01       2.33336e-09       7.43828e-11       3.35289e-16       1.07376e-11       5.24470e-01       4.76335e-02       5.24470e-01      
 1.71000e-01       3.09034e-09       9.86465e-11       3.35634e-16       1.42399e-11       5.24470e-01       4.76368e-02       5.24470e-01      
 1.80000e-01       4.09024e-09       1.30771e-10       3.36192e-16       1.88764e-11       5.24470e-01       4.76412e-02       5.24470e-01      
 1.89000e-01       5.40956e-09       1.73274e-10       3.37000e-16       2.50095e-11       5.24470e-01       4.76470e-02       5.24470e-01      
 1.98000e-01       7.14813e-09       2.29460e-10       3.38102e-16       3.31155e-11       5.24470e-01       4.76547e-02       5.24470e-01      
 2.07000e-01       9.43578e-09       3.03665e-10       3.39543e-16       4.38179e-11       5.24470e-01       4.76648e-02       5.24470e-01      
 2.16000e-01       1.24407e-08       4.01559e-10       3.41379e-16       5.79315e-11       5.24470e-01       4.76782e-02       5.24470e-01      
 2.25000e-01       1.63800e-08       5.30538e-10       3.43666e-16       7.65174e-11       5.24470e-01       4.76958e-02       5.24470e-01      
 2.34000e-01       2.15320e-08       7.00217e-10       3.46467e-16       1.00953e-10       5.24470e-01       4.77189e-02       5.24470e-01      
 2.43000e-01       2.82521e-08       9.23055e-10       3.49847e-16       1.33017e-10       5.24470e-01       4.77493e-02       5.24470e-01      
 2.52000e-01       3.69904e-08       1.21512e-09       3.53874e-16       1.74996e-10       5.24470e-01       4.77890e-02       5.24470e-01      
 2.61000e-01       4.83128e-08       1.59704e-09       3.58615e-16       2.29814e-10       5.24470e-01       4.78409e-02       5.24470e-01      
 2.70000e-01       6.29242e-08       2.09515e-09       3.64135e-16       3.01178e-10       5.24470e-01       4.79085e-02       5.24470e-01      
 2.79000e-01       8.16931e-08       2.74285e-09       3.70496e-16       3.93755e-10       5.24470e-01       4.79961e-02       5.24470e-01      
 2.88000e-01       1.05678e-07       3.58219e-09       3.77749e-16       5.13364e-10       5.24470e-01       4.81093e-02       5.24470e-01      
 2.97000e-01       1.36149e-07       4.66569e-09       3.85941e-16       6.67175e-10       5.24470e-01       4.82547e-02       5.24470e-01      
 3.06000e-01       1.74612e-07       6.05837e-09       3.95104e-16       8.63911e-10       5.24470e-01       4.84407e-02       5.24470e-01      
 3.15000e-01       2.22816e-07       7.83988e-09       4.05258e-16       1.11403e-09       5.24470e-01       4.86770e-02       5.24470e-01      
 3.24000e-01       2.82758e-07       1.01068e-08       4.16409e-16       1.42985e-09       5.24470e-01       4.89750e-02       5.24470e-01      
 3.33000e-01       3.56670e-07       1.29746e-08       4.28547e-16       1.82559e-09       5.24470e-01       4.93480e-02       5.24470e-01      
 3.42000e-01       4.46985e-07       1.65800e-08       4.41645e-16       2.31731e-09       5.24470e-01       4.98108e-02       5.24470e-01      
 3.51000e-01       5.56292e-07       2.10823e-08       4.55663e-16       2.92267e-09       5.24470e-01       5.03795e-02       5.24470e-01      
 3.60000e-01       6.87258e-07       2.66644e-08       4.70542e-16       3.66056e-09       5.24470e-01       5.10712e-02       5.24470e-01      
 3.69000e-01       8.42546e-07       3.35335e-08       4.86211e-16       4.55051e-09       5.24470e-01       5.19031e-02       5.24470e-01      
 3.78000e-01       1.02472e-06       4.19201e-08       5.02586e-16       5.61202e-09       5.24470e-01       5.28923e-02       5.24470e-01      
 3.87000e-01       1.23614e-06       5.20773e-08       5.19569e-16       6.86374e-09       5.24470e-01       5.40544e-02       5.24470e-01      
 3.96000e-01       1.47889e-06       6.42779e-08       5.37058e-16       8.32276e-09       5.24470e-01       5.54031e-02       5.24470e-01      
 4.05000e-01       1.75475e-06       7.88123e-08       5.54941e-16       1.00040e-08       5.24470e-01       5.69498e-02       5.24470e-01      
 4.14000e-01       2.06515e-06       9.59852e-08       5.73103e-16       1.19195e-08       5.24470e-01       5.87027e-02       5.24470e-01      
 4.23000e-01       2.41126e-06       1.16113e-07       5.91428e-16       1.40790e-08       5.24470e-01       6.06670e-02       5.24470e-01      
 4.32000e-01       2.79411e-06       1.39522e-07       6.09801e-16       1.64889e-08       5.24470e-01       6.28452e-02       5.24470e-01      
 4.41000e-01       3.21465e-06       1.66548e-07       6.28112e-16       1.91537e-08       5.24470e-01       6.52371e-02       5.24470e-01      
 4.50000e-01       3.67394e-06       1.97533e-07       6.46256e-16       2.20761e-08       5.24470e-01       6.78409e-02       5.24470e-01      
 4.59000e-01       4.17321e-06       2.32833e-07       6.64135e-16       2.52572e-08       5.24470e-01       7.06533e-02       5.24470e-01      
 4.68000e-01       4.71395e-06       2.72814e-07       6.81661e-16       2.86977e-08       5.24470e-01       7.36702e-02       5.24470e-01      
 4.77000e-01       5.29785e-06       3.17856e-07       6.98758e-16       3.23982e-08       5.24470e-01       7.68873e-02       5.24470e-01      
 4.86000e-01       5.92679e-06       3.68356e-07       7.15359e-16       3.63592e-08       5.24470e-01       8.03003e-02       5.24470e-01      
 4.95000e-01       6.60269e-06       4.24729e-07       7.31408e-16       4.05816e-08       5.24470e-01       8.39051e-02       5.24470e-01      
 5.04000e-01       7.32741e-06       4.87405e-07       7.46860e-16       4.50669e-08       5.24470e-01       8.76977e-02       5.24470e-01      
 5.13000e-01       8.10259e-06       5.56832e-07       7.61683e-16       4.98165e-08       5.24470e-01       9.16745e-02       5.24470e-01      
 5.22000e-01       8.92954e-06       6.33469e-07       7.75853e-16       5.48324e-08       5.24470e-01       9.58319e-02       5.24470e-01      
 5.31000e-01       9.80909e-06       7.17787e-07       7.89355e-16       6.01166e-08       5.24470e-01       1.00166e-01       5.24470e-01      
 5.40000e-01       1.07416e-05       8.10261e-07       8.02185e-16       6.56709e-08       5.24470e-01       1.04673e-01       5.24470e-01      
 5.49000e-01       1.17266e-05       9.11366e-07       8.14344e-16       7.14966e-08       5.24470e-01       1.09349e-01       5.24470e-01      
 5.58000e-01       1.27634e-05       1.02157e-06       8.25840e-16       7.75949e-08       5.24470e-01       1.14189e-01       5.24470e-01      
 5.67000e-01       1.38504e-05       1.14134e-06       8.36687e-16       8.39662e-08       5.24470e-01       1.19188e-01       5.24470e-01      
 5.76000e-01       1.49854e-05       1.27111e-06       8.46902e-16       9.06102e-08       5.24470e-01       1.24341e-01       5.24470e-01      
 5.85000e-01       1.61658e-05       1.41130e-06       8.56508e-16       9.75259e-08       5.24470e-01       1.29640e-01       5.24470e-01      
 5.94000e-01       1.73885e-05       1.56230e-06       8.65527e-16       1.04712e-07       5.24470e-01       1.35081e-01       5.24470e-01      
 6.03000e-01       1.86499e-05       1.72449e-06       8.73986e-16       1.12165e-07       5.24470e-01       1.40655e-01       5.24470e-01      
 6.12000e-01       1.99463e-05       1.89820e-06       8.81912e-16       1.19883e-07       5.24470e-01       1.46355e-01       5.24470e-01      
 6.21000e-01       2.12736e-05       2.08371e-06       8.89334e-16       1.27861e-07       5.24470e-01       1.52174e-01       5.24470e-01      
 6.30000e-01       2.26277e-05       2.28129e-06       8.96279e-16       1.36096e-07       5.24470e-01       1.58104e-01       5.24470e-01      
 6.39000e-01       2.40045e-05       2.49117e-06       9.02776e-16       1.44582e-07       5.24470e-01       1.64137e-01       5.24470e-01      
 6.48000e-01       2.53996e-05       2.71352e-06       9.08851e-16       1.53314e-07       5.24470e-01       1.70264e-01       5.24470e-01      
 6.57000e-01       2.68092e-05       2.94849e-06       9.14533e-16       1.62286e-07       5.24470e-01       1.76479e-01       5.24470e-01      
 6.66000e-01       2.82294e-05       3.19620e-06       9.19846e-16       1.71493e-07       5.24470e-01       1.82773e-01       5.24470e-01      
 6.75000e-01       2.96563e-05       3.45673e-06       9.24816e-16       1.80929e-07       5.24470e-01       1.89138e-01       5.24470e-01      
 6.84000e-01       3.10866e-05       3.73011e-06       9.29467e-16       1.90588e-07       5.24470e-01       1.95568e-01       5.24470e-01      
 6.93000e-01       3.25171e-05       4.01637e-06       9.33820e-16       2.00463e-07       5.24470e-01       2.02056e-01       5.24470e-01      
 7.02000e-01       3.39448e-05       4.31549e-06       9.37898e-16       2.10548e-07       5.24470e-01       2.08594e-01       5.24470e-01      
 7.11000e-01       3.53670e-05       4.62743e-06       9.41721e-16       2.20838e-07       5.24470e-01       2.15177e-01       5.24470e-01      
 7.20000e-01       3.67814e-05       4.95214e-06       9.45306e-16       2.31326e-07       5.24470e-01       2.21798e-01       5.24470e-01      
 7.29000e-01       3.81858e-05       5.28953e-06       9.48672e-16       2.42007e-07       5.24470e-01       2.28452e-01       5.24470e-01      
 7.38000e-01       3.95783e-05       5.63951e-06       9.51835e-16       2.52876e-07       5.24470e-01       2.35134e-01       5.24470e-01      
 7.47000e-01       4.09574e-05       6.00196e-06       9.54810e-16       2.63927e-07       5.24470e-01       2.41839e-01       5.24470e-01      
 7.56000e-01       4.23216e-05       6.37675e-06       9.57611e-16       2.75155e-07       5.24470e-01       2.48563e-01       5.24470e-01      
 7.65000e-01       4.36698e-05       6.76375e-06       9.60252e-16       2.86555e-07       5.24470e-01       2.55301e-01       5.24470e-01      
 7.74000e-01       4.50009e-05       7.16280e-06       9.62744e-16       2.98123e-07       5.24470e-01       2.62050e-01       5.24470e-01      
 7.83000e-01       4.63141e-05       7.57375e-06       9.65099e-16       3.09855e-07       5.24470e-01       2.68805e-01       5.24470e-01      
 7.92000e-01       4.76087e-05       7.99644e-06       9.67327e-16       3.21746e-07       5.24470e-01       2.75565e-01       5.24470e-01      
 8.01000e-01       4.88842e-05       8.43068e-06       9.69438e-16       3.33792e-07       5.24470e-01       2.82327e-01       5.24470e-01      
 8.10000e-01       5.01403e-05       8.87632e-06       9.71440e-16       3.45991e-07       5.24470e-01       2.89087e-01       5.24470e-01      
 8.19000e-01       5.13765e-05       9.33317e-06       9.73341e-16       3.58339e-07       5.24470e-01       2.95843e-01       5.24470e-01      
 8.28000e-01       5.25927e-05       9.80105e-06       9.75149e-16       3.70833e-07       5.24470e-01       3.02594e-01       5.24470e-01      
 8.37000e-01       5.37888e-05       1.02798e-05       9.76871e-16       3.83469e-07       5.24470e-01       3.09338e-01       5.24470e-01      
 8.46000e-01       5.49646e-05       1.07692e-05       9.78513e-16       3.96246e-07       5.24470e-01       3.16073e-01       5.24470e-01      
 8.55000e-01       5.61202e-05       1.12691e-05       9.80081e-16       4.09161e-07       5.24470e-01       3.22797e-01       5.24470e-01      
 8.64000e-01       5.72557e-05       1.17793e-05       9.81580e-16       4.22212e-07       5.24470e-01       3.29509e-01       5.24470e-01      
 8.73000e-01       5.83710e-05       1.22996e-05       9.83016e-16       4.35397e-07       5.24470e-01       3.36208e-01       5.24470e-01      
 8.82000e-01       5.94664e-05       1.28299e-05       9.84392e-16       4.48713e-07       5.24470e-01       3.42894e-01       5.24470e-01      
 8.91000e-01       6.05420e-05       1.33700e-05       9.85712e-16       4.62160e-07       5.24470e-01       3.49564e-01       5.24470e-01      
 9.00000e-01       6.15978e-05       1.39196e-05       9.86981e-16       4.75736e-07       5.24470e-01       3.56220e-01       5.24470e-01      
 9.09000e-01       6.26342e-05       1.44786e-05       9.88203e-16       4.89439e-07       5.24470e-01       3.62859e-01       5.24470e-01      
 9.18000e-01       6.36514e-05       1.50469e-05       9.89379e-16       5.03268e-07       5.24470e-01       3.69482e-01       5.24470e-01      
 9.27000e-01       6.46494e-05       1.56243e-05       9.90514e-16       5.17222e-07       5.24470e-01       3.76088e-01       5.24470e-01      
 9.36000e-01       6.56286e-05       1.62105e-05       9.91610e-16       5.31301e-07       5.24470e-01       3.82677e-01       5.24470e-01      
 9.45000e-01       6.65891e-05       1.68055e-05       9.92670e-16       5.45503e-07       5.24470e-01       3.89248e-01       5.24470e-01      
 9.54000e-01       6.75313e-05       1.74090e-05       9.93695e-16       5.59828e-07       5.24470e-01       3.95801e-01       5.24470e-01      
 9.63000e-01       6.84552e-05       1.80210e-05       9.94689e-16       5.74276e-07       5.24470e-01       4.02337e-01       5.24470e-01      
 9.72000e-01       6.93612e-05       1.86411e-05       9.95652e-16       5.88845e-07       5.24470e-01       4.08854e-01       5.24470e-01      
 9.81000e-01       7.02494e-05       1.92694e-05       9.96588e-16       6.03535e-07       5.24470e-01       4.15354e-01       5.24470e-01      
 9.90000e-01       7.11201e-05       1.99055e-05       9.97497e-16       6.18347e-07       5.24470e-01       4.21835e-01       5.24470e-01      
 9.99000e-01       7.19734e-05       2.05494e-05       9.98381e-16       6.33279e-07       5.24470e-01       4.28299e-01       5.24470e-01      
 1.00800e+00       7.28097e-05       2.12010e-05       9.99242e-16       6.48333e-07       5.24470e-01       4.34745e-01       5.24470e-01      
 1.01700e+00       7.36291e-05       2.18599e-05       1.00008e-15       6.63507e-07       5.24470e-01       4.41173e-01       5.24470e-01      
 1.02600e+00       7.44318e-05       2.25262e-05       1.00090e-15       6.78802e-07       5.24470e-01       4.47584e-01       5.24470e-01      
 1.03500e+00       7.52180e-05       2.31996e-05       1.00170e-15       6.94219e-07       5.24470e-01       4.53977e-01       5.24470e-01      
 1.04400e+00       7.59879e-05       2.38800e-05       1.00248e-15       7.09757e-07       5.24470e-01       4.60353e-01       5.24470e-01      
 1.05300e+00       7.67418e-05       2.45673e-05       1.00324e-15       7.25417e-07       5.24470e-01       4.66711e-01       5.24470e-01      
 1.06200e+00       7.74797e-05       2.52613e-05       1.00399e-15       7.41199e-07       5.24470e-01       4.73054e-01       5.24470e-01      
 1.07100e+00       7.82020e-05       2.59618e-05       1.00472e-15       7.57104e-07       5.24470e-01       4.79379e-01       5.24470e-01      
 1.08000e+00       7.89087e-05       2.66688e-05       1.00543e-15       7.73132e-07       5.24470e-01       4.85689e-01       5.24470e-01      
 1.08900e+00       7.96001e-05       2.73821e-05       1.00613e-15       7.89283e-07       5.24470e-01       4.91982e-01       5.24470e-01      
 1.09800e+00       8.02763e-05       2.81015e-05       1.00682e-15       8.05559e-07       5.24470e-01       4.98260e-01       5.24470e-01      
 1.10700e+00       8.09376e-05       2.88270e-05       1.00749e-15       8.21961e-07       5.24470e-01       5.04522e-01       5.24470e-01      
 1.11600e+00       8.15840e-05       2.95583e-05       1.00816e-15       8.38488e-07       5.24470e-01       5.10769e-01       5.24470e-01      
 1.12500e+00       8.22157e-05       3.02954e-05       1.00881e-15       8.55142e-07       5.24470e-01       5.17001e-01       5.24470e-01      
 1.13400e+00       8.28330e-05       3.10381e-05       1.00945e-15       8.71924e-07       5.24470e-01       5.23219e-01       5.24470e-01      
 1.14300e+00       8.34360e-05       3.17863e-05       1.01008e-15       8.88835e-07       5.24470e-01       5.29423e-01       5.24470e-01      
 1.15200e+00       8.40248e-05       3.25398e-05       1.01070e-15       9.05876e-07       5.24470e-01       5.35613e-01       5.24470e-01      
 1.16100e+00       8.45996e-05       3.32986e-05       1.01131e-15       9.23048e-07       5.24470e-01       5.41789e-01       5.24470e-01      
 1.17000e+00       8.51605e-05       3.40625e-05       1.01191e-15       9.40351e-07       5.24470e-01       5.47952e-01       5.24470e-01      
 1.17900e+00       8.57078e-05       3.48314e-05       1.01251e-15       9.57788e-07       5.24470e-01       5.54102e-01       5.24470e-01      
 1.18800e+00       8.62415e-05       3.56052e-05       1.01309e-15       9.75360e-07       5.24470e-01       5.60240e-01       5.24470e-01      
 1.19700e+00       8.67619e-05       3.63837e-05       1.01367e-15       9.93068e-07       5.24470e-01       5.66366e-01       5.24470e-01      
 1.20600e+00       8.72690e-05       3.71668e-05       1.01424e-15       1.01091e-06       5.24470e-01       5.72479e-01       5.24470e-01      
 1.21500e+00       8.77631e-05       3.79544e-05       1.01481e-15       1.02890e-06       5.24470e-01       5.78581e-01       5.24470e-01      
