
dc (V)            getData("M0:gm    getData("M0:id    getData("M0:cg    getData("M0:gd    getData("M0:vt    getData("M0:vd    getData("M0:vt

 0.00000e+00       8.93869e-13       4.63282e-14       3.95263e-15       6.82910e-16       4.86032e-01       3.93247e-02       4.86032e-01      
 9.00000e-03       1.19872e-12       5.47918e-14       3.93642e-15       9.15929e-16       4.86032e-01       3.93247e-02       4.86032e-01      
 1.80000e-02       1.60745e-12       6.65411e-14       3.92090e-15       1.22841e-15       4.86032e-01       3.93248e-02       4.86032e-01      
 2.70000e-02       2.15539e-12       8.26537e-14       3.90612e-15       1.64742e-15       4.86032e-01       3.93248e-02       4.86032e-01      
 3.60000e-02       2.88988e-12       1.04578e-13       3.89212e-15       2.20924e-15       4.86032e-01       3.93249e-02       4.86032e-01      
 4.50000e-02       3.87430e-12       1.34256e-13       3.87898e-15       2.96246e-15       4.86032e-01       3.93250e-02       4.86032e-01      
 5.40000e-02       5.19348e-12       1.74296e-13       3.86678e-15       3.97221e-15       4.86032e-01       3.93251e-02       4.86032e-01      
 6.30000e-02       6.96096e-12       2.28192e-13       3.85562e-15       5.32568e-15       4.86032e-01       3.93253e-02       4.86032e-01      
 7.20000e-02       9.32858e-12       3.00624e-13       3.84564e-15       7.13961e-15       4.86032e-01       3.93256e-02       4.86032e-01      
 8.10000e-02       1.24993e-11       3.97860e-13       3.83699e-15       9.57028e-15       4.86032e-01       3.93259e-02       4.86032e-01      
 9.00000e-02       1.67443e-11       5.28288e-13       3.82988e-15       1.28267e-14       4.86032e-01       3.93264e-02       4.86032e-01      
 9.90000e-02       2.24257e-11       7.03128e-13       3.82456e-15       1.71885e-14       4.86032e-01       3.93270e-02       4.86032e-01      
 1.08000e-01       3.00263e-11       9.37378e-13       3.82131e-15       2.30292e-14       4.86032e-01       3.93278e-02       4.86032e-01      
 1.17000e-01       4.01898e-11       1.25107e-12       3.82048e-15       3.08479e-14       4.86032e-01       3.93288e-02       4.86032e-01      
 1.26000e-01       5.37711e-11       1.67096e-12       3.82241e-15       4.13105e-14       4.86032e-01       3.93303e-02       4.86032e-01      
 1.35000e-01       7.19059e-11       2.23267e-12       3.82756e-15       5.53041e-14       4.86032e-01       3.93322e-02       4.86032e-01      
 1.44000e-01       9.61041e-11       2.98368e-12       3.83666e-15       7.40102e-14       4.86032e-01       3.93348e-02       4.86032e-01      
 1.53000e-01       1.28363e-10       3.98715e-12       3.85040e-15       9.90004e-14       4.86032e-01       3.93383e-02       4.86032e-01      
 1.62000e-01       1.71323e-10       5.32700e-12       3.86956e-15       1.32361e-13       4.86032e-01       3.93429e-02       4.86032e-01      
 1.71000e-01       2.28461e-10       7.11451e-12       3.89506e-15       1.76858e-13       4.86032e-01       3.93490e-02       4.86032e-01      
 1.80000e-01       3.04344e-10       9.49696e-12       3.92791e-15       2.36147e-13       4.86032e-01       3.93572e-02       4.86032e-01      
 1.89000e-01       4.04953e-10       1.26689e-11       3.96924e-15       3.15052e-13       4.86032e-01       3.93681e-02       4.86032e-01      
 1.98000e-01       5.38080e-10       1.68864e-11       4.02028e-15       4.19917e-13       4.86032e-01       3.93826e-02       4.86032e-01      
 2.07000e-01       7.13830e-10       2.24859e-11       4.08233e-15       5.59051e-13       4.86032e-01       3.94018e-02       4.86032e-01      
 2.16000e-01       9.45238e-10       2.99072e-11       4.15675e-15       7.43298e-13       4.86032e-01       3.94273e-02       4.86032e-01      
 2.25000e-01       1.24900e-09       3.97238e-11       4.24492e-15       9.86732e-13       4.86032e-01       3.94609e-02       4.86032e-01      
 2.34000e-01       1.64635e-09       5.26788e-11       4.34816e-15       1.30752e-12       4.86032e-01       3.95051e-02       4.86032e-01      
 2.43000e-01       2.16406e-09       6.97309e-11       4.46776e-15       1.72892e-12       4.86032e-01       3.95632e-02       4.86032e-01      
 2.52000e-01       2.83557e-09       9.21087e-11       4.60483e-15       2.28053e-12       4.86032e-01       3.96393e-02       4.86032e-01      
 2.61000e-01       3.70216e-09       1.21377e-10       4.76034e-15       2.99959e-12       4.86032e-01       3.97383e-02       4.86032e-01      
 2.70000e-01       4.81424e-09       1.59511e-10       4.93500e-15       3.93246e-12       4.86032e-01       3.98666e-02       4.86032e-01      
 2.79000e-01       6.23250e-09       2.08986e-10       5.12925e-15       5.13613e-12       4.86032e-01       4.00318e-02       4.86032e-01      
 2.88000e-01       8.02898e-09       2.72876e-10       5.34324e-15       6.67961e-12       4.86032e-01       4.02433e-02       4.86032e-01      
 2.97000e-01       1.02878e-08       3.54954e-10       5.57679e-15       8.64505e-12       4.86032e-01       4.05120e-02       4.86032e-01      
 3.06000e-01       1.31055e-08       4.59808e-10       5.82935e-15       1.11284e-11       4.86032e-01       4.08504e-02       4.86032e-01      
 3.15000e-01       1.65908e-08       5.92952e-10       6.10008e-15       1.42391e-11       4.86032e-01       4.12728e-02       4.86032e-01      
 3.24000e-01       2.08636e-08       7.60927e-10       6.38777e-15       1.80992e-11       4.86032e-01       4.17944e-02       4.86032e-01      
 3.33000e-01       2.60526e-08       9.71397e-10       6.69094e-15       2.28410e-11       4.86032e-01       4.24315e-02       4.86032e-01      
 3.42000e-01       3.22930e-08       1.23322e-09       7.00780e-15       2.86033e-11       4.86032e-01       4.32007e-02       4.86032e-01      
 3.51000e-01       3.97219e-08       1.55647e-09       7.33638e-15       3.55275e-11       4.86032e-01       4.41179e-02       4.86032e-01      
 3.60000e-01       4.84744e-08       1.95247e-09       7.67450e-15       4.37516e-11       4.86032e-01       4.51977e-02       4.86032e-01      
 3.69000e-01       5.86784e-08       2.43371e-09       8.01986e-15       5.34060e-11       4.86032e-01       4.64529e-02       4.86032e-01      
 3.78000e-01       7.04520e-08       3.01380e-09       8.37009e-15       6.46084e-11       4.86032e-01       4.78934e-02       4.86032e-01      
 3.87000e-01       8.39013e-08       3.70736e-09       8.72282e-15       7.74604e-11       4.86032e-01       4.95266e-02       4.86032e-01      
 3.96000e-01       9.91218e-08       4.52991e-09       9.07572e-15       9.20467e-11       4.86032e-01       5.13570e-02       4.86032e-01      
 4.05000e-01       1.16201e-07       5.49779e-09       9.42656e-15       1.08434e-10       4.86032e-01       5.33862e-02       4.86032e-01      
 4.14000e-01       1.35226e-07       6.62813e-09       9.77326e-15       1.26675e-10       4.86032e-01       5.56141e-02       4.86032e-01      
 4.23000e-01       1.56285e-07       7.93883e-09       1.01139e-14       1.46810e-10       4.86032e-01       5.80387e-02       4.86032e-01      
 4.32000e-01       1.79475e-07       9.44864e-09       1.04468e-14       1.68869e-10       4.86032e-01       6.06574e-02       4.86032e-01      
 4.41000e-01       2.04903e-07       1.11772e-08       1.07704e-14       1.92877e-10       4.86032e-01       6.34668e-02       4.86032e-01      
 4.50000e-01       2.32685e-07       1.31452e-08       1.10835e-14       2.18859e-10       4.86032e-01       6.64637e-02       4.86032e-01      
 4.59000e-01       2.62945e-07       1.53743e-08       1.13852e-14       2.46838e-10       4.86032e-01       6.96450e-02       4.86032e-01      
 4.68000e-01       2.95807e-07       1.78875e-08       1.16745e-14       2.76835e-10       4.86032e-01       7.30079e-02       4.86032e-01      
 4.77000e-01       3.31392e-07       2.07087e-08       1.19511e-14       3.08875e-10       4.86032e-01       7.65499e-02       4.86032e-01      
 4.86000e-01       3.69808e-07       2.38628e-08       1.22145e-14       3.42982e-10       4.86032e-01       8.02688e-02       4.86032e-01      
 4.95000e-01       4.11148e-07       2.73759e-08       1.24645e-14       3.79180e-10       4.86032e-01       8.41624e-02       4.86032e-01      
 5.04000e-01       4.55480e-07       3.12746e-08       1.27012e-14       4.17489e-10       4.86032e-01       8.82284e-02       4.86032e-01      
 5.13000e-01       5.02849e-07       3.55859e-08       1.29247e-14       4.57929e-10       4.86032e-01       9.24643e-02       4.86032e-01      
 5.22000e-01       5.53267e-07       4.03374e-08       1.31352e-14       5.00515e-10       4.86032e-01       9.68675e-02       4.86032e-01      
 5.31000e-01       6.06720e-07       4.55563e-08       1.33331e-14       5.45255e-10       4.86032e-01       1.01435e-01       4.86032e-01      
 5.40000e-01       6.63163e-07       5.12699e-08       1.35188e-14       5.92156e-10       4.86032e-01       1.06163e-01       4.86032e-01      
 5.49000e-01       7.22521e-07       5.75048e-08       1.36929e-14       6.41215e-10       4.86032e-01       1.11047e-01       4.86032e-01      
 5.58000e-01       7.84697e-07       6.42867e-08       1.38558e-14       6.92426e-10       4.86032e-01       1.16083e-01       4.86032e-01      
 5.67000e-01       8.49569e-07       7.16404e-08       1.40080e-14       7.45776e-10       4.86032e-01       1.21266e-01       4.86032e-01      
 5.76000e-01       9.16997e-07       7.95896e-08       1.41503e-14       8.01249e-10       4.86032e-01       1.26592e-01       4.86032e-01      
 5.85000e-01       9.86827e-07       8.81567e-08       1.42831e-14       8.58821e-10       4.86032e-01       1.32053e-01       4.86032e-01      
 5.94000e-01       1.05889e-06       9.73625e-08       1.44070e-14       9.18468e-10       4.86032e-01       1.37645e-01       4.86032e-01      
 6.03000e-01       1.13302e-06       1.07226e-07       1.45225e-14       9.80159e-10       4.86032e-01       1.43362e-01       4.86032e-01      
 6.12000e-01       1.20904e-06       1.17766e-07       1.46303e-14       1.04386e-09       4.86032e-01       1.49197e-01       4.86032e-01      
 6.21000e-01       1.28677e-06       1.28997e-07       1.47309e-14       1.10954e-09       4.86032e-01       1.55145e-01       4.86032e-01      
 6.30000e-01       1.36605e-06       1.40936e-07       1.48247e-14       1.17717e-09       4.86032e-01       1.61199e-01       4.86032e-01      
 6.39000e-01       1.44669e-06       1.53594e-07       1.49123e-14       1.24670e-09       4.86032e-01       1.67354e-01       4.86032e-01      
 6.48000e-01       1.52855e-06       1.66983e-07       1.49941e-14       1.31810e-09       4.86032e-01       1.73604e-01       4.86032e-01      
 6.57000e-01       1.61147e-06       1.81114e-07       1.50705e-14       1.39134e-09       4.86032e-01       1.79942e-01       4.86032e-01      
 6.66000e-01       1.69530e-06       1.95995e-07       1.51419e-14       1.46637e-09       4.86032e-01       1.86365e-01       4.86032e-01      
 6.75000e-01       1.77992e-06       2.11635e-07       1.52087e-14       1.54317e-09       4.86032e-01       1.92867e-01       4.86032e-01      
 6.84000e-01       1.86520e-06       2.28039e-07       1.52713e-14       1.62171e-09       4.86032e-01       1.99442e-01       4.86032e-01      
 6.93000e-01       1.95104e-06       2.45213e-07       1.53300e-14       1.70195e-09       4.86032e-01       2.06087e-01       4.86032e-01      
 7.02000e-01       2.03731e-06       2.63162e-07       1.53850e-14       1.78386e-09       4.86032e-01       2.12797e-01       4.86032e-01      
 7.11000e-01       2.12395e-06       2.81888e-07       1.54367e-14       1.86742e-09       4.86032e-01       2.19568e-01       4.86032e-01      
 7.20000e-01       2.21086e-06       3.01396e-07       1.54854e-14       1.95260e-09       4.86032e-01       2.26396e-01       4.86032e-01      
 7.29000e-01       2.29796e-06       3.21687e-07       1.55312e-14       2.03938e-09       4.86032e-01       2.33278e-01       4.86032e-01      
 7.38000e-01       2.38520e-06       3.42762e-07       1.55743e-14       2.12774e-09       4.86032e-01       2.40210e-01       4.86032e-01      
 7.47000e-01       2.47250e-06       3.64622e-07       1.56151e-14       2.21766e-09       4.86032e-01       2.47190e-01       4.86032e-01      
 7.56000e-01       2.55983e-06       3.87269e-07       1.56536e-14       2.30913e-09       4.86032e-01       2.54214e-01       4.86032e-01      
 7.65000e-01       2.64713e-06       4.10701e-07       1.56901e-14       2.40213e-09       4.86032e-01       2.61281e-01       4.86032e-01      
 7.74000e-01       2.73436e-06       4.34918e-07       1.57246e-14       2.49664e-09       4.86032e-01       2.68388e-01       4.86032e-01      
 7.83000e-01       2.82148e-06       4.59920e-07       1.57574e-14       2.59267e-09       4.86032e-01       2.75532e-01       4.86032e-01      
 7.92000e-01       2.90846e-06       4.85705e-07       1.57885e-14       2.69020e-09       4.86032e-01       2.82712e-01       4.86032e-01      
 8.01000e-01       2.99528e-06       5.12273e-07       1.58182e-14       2.78922e-09       4.86032e-01       2.89926e-01       4.86032e-01      
 8.10000e-01       3.08191e-06       5.39620e-07       1.58464e-14       2.88974e-09       4.86032e-01       2.97173e-01       4.86032e-01      
 8.19000e-01       3.16832e-06       5.67747e-07       1.58733e-14       2.99174e-09       4.86032e-01       3.04450e-01       4.86032e-01      
 8.28000e-01       3.25449e-06       5.96650e-07       1.58991e-14       3.09524e-09       4.86032e-01       3.11757e-01       4.86032e-01      
 8.37000e-01       3.34041e-06       6.26327e-07       1.59237e-14       3.20022e-09       4.86032e-01       3.19092e-01       4.86032e-01      
 8.46000e-01       3.42606e-06       6.56776e-07       1.59473e-14       3.30669e-09       4.86032e-01       3.26455e-01       4.86032e-01      
 8.55000e-01       3.51141e-06       6.87995e-07       1.59699e-14       3.41467e-09       4.86032e-01       3.33844e-01       4.86032e-01      
 8.64000e-01       3.59647e-06       7.19980e-07       1.59916e-14       3.52414e-09       4.86032e-01       3.41258e-01       4.86032e-01      
 8.73000e-01       3.68121e-06       7.52730e-07       1.60124e-14       3.63512e-09       4.86032e-01       3.48697e-01       4.86032e-01      
 8.82000e-01       3.76563e-06       7.86240e-07       1.60325e-14       3.74762e-09       4.86032e-01       3.56160e-01       4.86032e-01      
 8.91000e-01       3.84970e-06       8.20509e-07       1.60518e-14       3.86165e-09       4.86032e-01       3.63646e-01       4.86032e-01      
 9.00000e-01       3.93343e-06       8.55533e-07       1.60705e-14       3.97722e-09       4.86032e-01       3.71154e-01       4.86032e-01      
 9.09000e-01       4.01679e-06       8.91308e-07       1.60885e-14       4.09433e-09       4.86032e-01       3.78685e-01       4.86032e-01      
 9.18000e-01       4.09977e-06       9.27832e-07       1.61059e-14       4.21301e-09       4.86032e-01       3.86238e-01       4.86032e-01      
 9.27000e-01       4.18238e-06       9.65101e-07       1.61227e-14       4.33327e-09       4.86032e-01       3.93811e-01       4.86032e-01      
 9.36000e-01       4.26458e-06       1.00311e-06       1.61390e-14       4.45512e-09       4.86032e-01       4.01406e-01       4.86032e-01      
 9.45000e-01       4.34639e-06       1.04186e-06       1.61548e-14       4.57859e-09       4.86032e-01       4.09021e-01       4.86032e-01      
 9.54000e-01       4.42778e-06       1.08134e-06       1.61701e-14       4.70369e-09       4.86032e-01       4.16657e-01       4.86032e-01      
 9.63000e-01       4.50874e-06       1.12156e-06       1.61849e-14       4.83043e-09       4.86032e-01       4.24313e-01       4.86032e-01      
 9.72000e-01       4.58927e-06       1.16250e-06       1.61994e-14       4.95885e-09       4.86032e-01       4.31988e-01       4.86032e-01      
 9.81000e-01       4.66936e-06       1.20416e-06       1.62134e-14       5.08896e-09       4.86032e-01       4.39684e-01       4.86032e-01      
 9.90000e-01       4.74899e-06       1.24654e-06       1.62270e-14       5.22078e-09       4.86032e-01       4.47398e-01       4.86032e-01      
 9.99000e-01       4.82815e-06       1.28964e-06       1.62403e-14       5.35435e-09       4.86032e-01       4.55133e-01       4.86032e-01      
 1.00800e+00       4.90684e-06       1.33345e-06       1.62533e-14       5.48968e-09       4.86032e-01       4.62886e-01       4.86032e-01      
 1.01700e+00       4.98504e-06       1.37796e-06       1.62659e-14       5.62680e-09       4.86032e-01       4.70659e-01       4.86032e-01      
 1.02600e+00       5.06275e-06       1.42317e-06       1.62782e-14       5.76574e-09       4.86032e-01       4.78450e-01       4.86032e-01      
 1.03500e+00       5.13995e-06       1.46908e-06       1.62902e-14       5.90654e-09       4.86032e-01       4.86261e-01       4.86032e-01      
 1.04400e+00       5.21664e-06       1.51569e-06       1.63019e-14       6.04921e-09       4.86032e-01       4.94091e-01       4.86032e-01      
 1.05300e+00       5.29280e-06       1.56298e-06       1.63134e-14       6.19380e-09       4.86032e-01       5.01939e-01       4.86032e-01      
 1.06200e+00       5.36843e-06       1.61095e-06       1.63246e-14       6.34033e-09       4.86032e-01       5.09807e-01       4.86032e-01      
 1.07100e+00       5.44351e-06       1.65961e-06       1.63356e-14       6.48885e-09       4.86032e-01       5.17693e-01       4.86032e-01      
 1.08000e+00       5.51804e-06       1.70893e-06       1.63463e-14       6.63938e-09       4.86032e-01       5.25599e-01       4.86032e-01      
 1.08900e+00       5.59200e-06       1.75893e-06       1.63568e-14       6.79196e-09       4.86032e-01       5.33523e-01       4.86032e-01      
 1.09800e+00       5.66539e-06       1.80959e-06       1.63670e-14       6.94665e-09       4.86032e-01       5.41466e-01       4.86032e-01      
 1.10700e+00       5.73820e-06       1.86090e-06       1.63771e-14       7.10346e-09       4.86032e-01       5.49428e-01       4.86032e-01      
 1.11600e+00       5.81041e-06       1.91287e-06       1.63869e-14       7.26246e-09       4.86032e-01       5.57409e-01       4.86032e-01      
 1.12500e+00       5.88203e-06       1.96548e-06       1.63966e-14       7.42367e-09       4.86032e-01       5.65410e-01       4.86032e-01      
 1.13400e+00       5.95303e-06       2.01874e-06       1.64061e-14       7.58716e-09       4.86032e-01       5.73429e-01       4.86032e-01      
 1.14300e+00       6.02341e-06       2.07263e-06       1.64154e-14       7.75297e-09       4.86032e-01       5.81467e-01       4.86032e-01      
 1.15200e+00       6.09317e-06       2.12716e-06       1.64245e-14       7.92114e-09       4.86032e-01       5.89525e-01       4.86032e-01      
 1.16100e+00       6.16229e-06       2.18231e-06       1.64335e-14       8.09173e-09       4.86032e-01       5.97602e-01       4.86032e-01      
 1.17000e+00       6.23077e-06       2.23808e-06       1.64423e-14       8.26479e-09       4.86032e-01       6.05698e-01       4.86032e-01      
 1.17900e+00       6.29859e-06       2.29446e-06       1.64509e-14       8.44039e-09       4.86032e-01       6.13813e-01       4.86032e-01      
 1.18800e+00       6.36575e-06       2.35145e-06       1.64594e-14       8.61857e-09       4.86032e-01       6.21948e-01       4.86032e-01      
 1.19700e+00       6.43225e-06       2.40904e-06       1.64677e-14       8.79940e-09       4.86032e-01       6.30102e-01       4.86032e-01      
 1.20600e+00       6.49807e-06       2.46722e-06       1.64760e-14       8.98295e-09       4.86032e-01       6.38276e-01       4.86032e-01      
 1.21500e+00       6.56321e-06       2.52600e-06       1.64840e-14       9.16928e-09       4.86032e-01       6.46470e-01       4.86032e-01      
