
dc (V)            getData("M0:gm    getData("M0:id    getData("M0:cg    getData("M0:gd    getData("M0:vt    getData("M0:vd    getData("M0:vt

 0.00000e+00       4.81234e-12       1.68152e-13       8.24083e-16       1.54776e-14       4.98673e-01       4.19794e-02       4.98673e-01      
 9.00000e-03       6.43284e-12       2.17538e-13       8.21174e-16       2.06917e-14       4.98673e-01       4.19794e-02       4.98673e-01      
 1.80000e-02       8.59858e-12       2.83947e-13       8.18375e-16       2.76614e-14       4.98673e-01       4.19794e-02       4.98673e-01      
 2.70000e-02       1.14928e-11       3.73066e-13       8.15692e-16       3.69774e-14       4.98673e-01       4.19795e-02       4.98673e-01      
 3.60000e-02       1.53601e-11       4.92494e-13       8.13132e-16       4.94285e-14       4.98673e-01       4.19795e-02       4.98673e-01      
 4.50000e-02       2.05272e-11       6.52386e-13       8.10704e-16       6.60688e-14       4.98673e-01       4.19796e-02       4.98673e-01      
 5.40000e-02       2.74300e-11       8.66306e-13       8.08419e-16       8.83056e-14       4.98673e-01       4.19797e-02       4.98673e-01      
 6.30000e-02       3.66501e-11       1.15237e-12       8.06292e-16       1.18018e-13       4.98673e-01       4.19799e-02       4.98673e-01      
 7.20000e-02       4.89632e-11       1.53476e-12       8.04342e-16       1.57716e-13       4.98673e-01       4.19801e-02       4.98673e-01      
 8.10000e-02       6.54036e-11       2.04576e-12       8.02591e-16       2.10746e-13       4.98673e-01       4.19803e-02       4.98673e-01      
 9.00000e-02       8.73494e-11       2.72844e-12       8.01067e-16       2.81575e-13       4.98673e-01       4.19807e-02       4.98673e-01      
 9.90000e-02       1.16636e-10       3.64022e-12       7.99805e-16       3.76159e-13       4.98673e-01       4.19812e-02       4.98673e-01      
 1.08000e-01       1.55705e-10       4.85769e-12       7.98847e-16       5.02437e-13       4.98673e-01       4.19818e-02       4.98673e-01      
 1.17000e-01       2.07805e-10       6.48284e-12       7.98244e-16       6.70987e-13       4.98673e-01       4.19826e-02       4.98673e-01      
 1.26000e-01       2.77238e-10       8.65149e-12       7.98028e-16       8.95887e-13       4.98673e-01       4.19838e-02       4.98673e-01      
 1.35000e-01       3.69718e-10       1.15442e-11       7.98287e-16       1.19585e-12       4.98673e-01       4.19853e-02       4.98673e-01      
 1.44000e-01       4.92823e-10       1.54010e-11       7.99122e-16       1.59576e-12       4.98673e-01       4.19873e-02       4.98673e-01      
 1.53000e-01       6.56572e-10       2.05407e-11       8.00633e-16       2.12863e-12       4.98673e-01       4.19900e-02       4.98673e-01      
 1.62000e-01       8.74189e-10       2.73860e-11       8.02939e-16       2.83826e-12       4.98673e-01       4.19935e-02       4.98673e-01      
 1.71000e-01       1.16310e-09       3.64968e-11       8.06175e-16       3.78260e-12       4.98673e-01       4.19982e-02       4.98673e-01      
 1.80000e-01       1.54619e-09       4.86136e-11       8.10498e-16       5.03823e-12       4.98673e-01       4.20045e-02       4.98673e-01      
 1.89000e-01       2.05345e-09       6.47132e-11       8.16083e-16       6.70616e-12       4.98673e-01       4.20129e-02       4.98673e-01      
 1.98000e-01       2.72404e-09       8.60823e-11       8.23123e-16       8.91921e-12       4.98673e-01       4.20240e-02       4.98673e-01      
 2.07000e-01       3.60883e-09       1.14411e-10       8.31829e-16       1.18516e-11       4.98673e-01       4.20387e-02       4.98673e-01      
 2.16000e-01       4.77369e-09       1.51911e-10       8.42426e-16       1.57310e-11       4.98673e-01       4.20582e-02       4.98673e-01      
 2.25000e-01       6.30332e-09       2.01470e-10       8.55148e-16       2.08537e-11       4.98673e-01       4.20838e-02       4.98673e-01      
 2.34000e-01       8.30604e-09       2.66842e-10       8.70234e-16       2.76034e-11       4.98673e-01       4.21177e-02       4.98673e-01      
 2.43000e-01       1.09193e-08       3.52879e-10       8.87918e-16       3.64742e-11       4.98673e-01       4.21621e-02       4.98673e-01      
 2.52000e-01       1.43159e-08       4.65829e-10       9.08423e-16       4.80982e-11       4.98673e-01       4.22204e-02       4.98673e-01      
 2.61000e-01       1.87114e-08       6.13681e-10       9.31952e-16       6.32769e-11       4.98673e-01       4.22964e-02       4.98673e-01      
 2.70000e-01       2.43713e-08       8.06584e-10       9.58677e-16       8.30180e-11       4.98673e-01       4.23953e-02       4.98673e-01      
 2.79000e-01       3.16187e-08       1.05733e-09       9.88734e-16       1.08574e-10       4.98673e-01       4.25232e-02       4.98673e-01      
 2.88000e-01       4.08414e-08       1.38191e-09       1.02221e-15       1.41482e-10       4.98673e-01       4.26879e-02       4.98673e-01      
 2.97000e-01       5.24979e-08       1.80012e-09       1.05915e-15       1.83601e-10       4.98673e-01       4.28985e-02       4.98673e-01      
 3.06000e-01       6.71204e-08       2.33622e-09       1.09953e-15       2.37137e-10       4.98673e-01       4.31660e-02       4.98673e-01      
 3.15000e-01       8.53160e-08       3.01958e-09       1.14329e-15       3.04665e-10       4.98673e-01       4.35030e-02       4.98673e-01      
 3.24000e-01       1.07762e-07       3.88538e-09       1.19028e-15       3.89110e-10       4.98673e-01       4.39240e-02       4.98673e-01      
 3.33000e-01       1.35198e-07       4.97518e-09       1.24032e-15       4.93721e-10       4.98673e-01       4.44446e-02       4.98673e-01      
 3.42000e-01       1.68409e-07       6.33741e-09       1.29317e-15       6.21994e-10       4.98673e-01       4.50818e-02       4.98673e-01      
 3.51000e-01       2.08206e-07       8.02771e-09       1.34854e-15       7.77569e-10       4.98673e-01       4.58528e-02       4.98673e-01      
 3.60000e-01       2.55400e-07       1.01090e-08       1.40609e-15       9.64093e-10       4.98673e-01       4.67748e-02       4.98673e-01      
 3.69000e-01       3.10772e-07       1.26516e-08       1.46546e-15       1.18507e-09       4.98673e-01       4.78637e-02       4.98673e-01      
 3.78000e-01       3.75048e-07       1.57322e-08       1.52626e-15       1.44371e-09       4.98673e-01       4.91336e-02       4.98673e-01      
 3.87000e-01       4.48872e-07       1.94341e-08       1.58808e-15       1.74278e-09       4.98673e-01       5.05963e-02       4.98673e-01      
 3.96000e-01       5.32804e-07       2.38458e-08       1.65051e-15       2.08454e-09       4.98673e-01       5.22604e-02       4.98673e-01      
 4.05000e-01       6.27318e-07       2.90605e-08       1.71314e-15       2.47067e-09       4.98673e-01       5.41316e-02       4.98673e-01      
 4.14000e-01       7.32828e-07       3.51753e-08       1.77558e-15       2.90232e-09       4.98673e-01       5.62126e-02       4.98673e-01      
 4.23000e-01       8.49719e-07       4.22911e-08       1.83745e-15       3.38014e-09       4.98673e-01       5.85036e-02       4.98673e-01      
 4.32000e-01       9.78382e-07       5.05119e-08       1.89840e-15       3.90441e-09       4.98673e-01       6.10029e-02       4.98673e-01      
 4.41000e-01       1.11925e-06       5.99456e-08       1.95813e-15       4.47515e-09       4.98673e-01       6.37074e-02       4.98673e-01      
 4.50000e-01       1.27282e-06       7.07044e-08       2.01636e-15       5.09222e-09       4.98673e-01       6.66131e-02       4.98673e-01      
 4.59000e-01       1.43964e-06       8.29049e-08       2.07286e-15       5.75544e-09       4.98673e-01       6.97161e-02       4.98673e-01      
 4.68000e-01       1.62032e-06       9.66692e-08       2.12742e-15       6.46465e-09       4.98673e-01       7.30123e-02       4.98673e-01      
 4.77000e-01       1.81550e-06       1.12125e-07       2.17990e-15       7.21973e-09       4.98673e-01       7.64979e-02       4.98673e-01      
 4.86000e-01       2.02579e-06       1.29405e-07       2.23018e-15       8.02064e-09       4.98673e-01       8.01695e-02       4.98673e-01      
 4.95000e-01       2.25177e-06       1.48649e-07       2.27817e-15       8.86742e-09       4.98673e-01       8.40237e-02       4.98673e-01      
 5.04000e-01       2.49391e-06       1.69999e-07       2.32384e-15       9.76014e-09       4.98673e-01       8.80577e-02       4.98673e-01      
 5.13000e-01       2.75258e-06       1.93603e-07       2.36716e-15       1.06989e-08       4.98673e-01       9.22685e-02       4.98673e-01      
 5.22000e-01       3.02798e-06       2.19611e-07       2.40816e-15       1.16838e-08       4.98673e-01       9.66529e-02       4.98673e-01      
 5.31000e-01       3.32018e-06       2.48173e-07       2.44685e-15       1.27148e-08       4.98673e-01       1.01208e-01       4.98673e-01      
 5.40000e-01       3.62903e-06       2.79441e-07       2.48329e-15       1.37920e-08       4.98673e-01       1.05929e-01       4.98673e-01      
 5.49000e-01       3.95426e-06       3.13563e-07       2.51755e-15       1.49153e-08       4.98673e-01       1.10813e-01       4.98673e-01      
 5.58000e-01       4.29541e-06       3.50684e-07       2.54971e-15       1.60843e-08       4.98673e-01       1.15856e-01       4.98673e-01      
 5.67000e-01       4.65186e-06       3.90945e-07       2.57985e-15       1.72989e-08       4.98673e-01       1.21052e-01       4.98673e-01      
 5.76000e-01       5.02288e-06       4.34481e-07       2.60807e-15       1.85585e-08       4.98673e-01       1.26395e-01       4.98673e-01      
 5.85000e-01       5.40762e-06       4.81418e-07       2.63446e-15       1.98628e-08       4.98673e-01       1.31881e-01       4.98673e-01      
 5.94000e-01       5.80513e-06       5.31877e-07       2.65913e-15       2.12110e-08       4.98673e-01       1.37504e-01       4.98673e-01      
 6.03000e-01       6.21443e-06       5.85967e-07       2.68218e-15       2.26024e-08       4.98673e-01       1.43256e-01       4.98673e-01      
 6.12000e-01       6.63446e-06       6.43790e-07       2.70370e-15       2.40364e-08       4.98673e-01       1.49132e-01       4.98673e-01      
 6.21000e-01       7.06416e-06       7.05437e-07       2.72379e-15       2.55121e-08       4.98673e-01       1.55125e-01       4.98673e-01      
 6.30000e-01       7.50247e-06       7.70992e-07       2.74254e-15       2.70286e-08       4.98673e-01       1.61229e-01       4.98673e-01      
 6.39000e-01       7.94834e-06       8.40526e-07       2.76005e-15       2.85851e-08       4.98673e-01       1.67437e-01       4.98673e-01      
 6.48000e-01       8.40076e-06       9.14102e-07       2.77640e-15       3.01806e-08       4.98673e-01       1.73742e-01       4.98673e-01      
 6.57000e-01       8.85876e-06       9.91777e-07       2.79168e-15       3.18143e-08       4.98673e-01       1.80138e-01       4.98673e-01      
 6.66000e-01       9.32141e-06       1.07359e-06       2.80596e-15       3.34852e-08       4.98673e-01       1.86620e-01       4.98673e-01      
 6.75000e-01       9.78785e-06       1.15959e-06       2.81932e-15       3.51924e-08       4.98673e-01       1.93182e-01       4.98673e-01      
 6.84000e-01       1.02573e-05       1.24980e-06       2.83182e-15       3.69352e-08       4.98673e-01       1.99817e-01       4.98673e-01      
 6.93000e-01       1.07290e-05       1.34425e-06       2.84353e-15       3.87126e-08       4.98673e-01       2.06520e-01       4.98673e-01      
 7.02000e-01       1.12022e-05       1.44295e-06       2.85450e-15       4.05239e-08       4.98673e-01       2.13287e-01       4.98673e-01      
 7.11000e-01       1.16765e-05       1.54591e-06       2.86481e-15       4.23684e-08       4.98673e-01       2.20113e-01       4.98673e-01      
 7.20000e-01       1.21511e-05       1.65314e-06       2.87448e-15       4.42453e-08       4.98673e-01       2.26993e-01       4.98673e-01      
 7.29000e-01       1.26257e-05       1.76464e-06       2.88358e-15       4.61540e-08       4.98673e-01       2.33923e-01       4.98673e-01      
 7.38000e-01       1.30997e-05       1.88041e-06       2.89215e-15       4.80938e-08       4.98673e-01       2.40899e-01       4.98673e-01      
 7.47000e-01       1.35728e-05       2.00045e-06       2.90022e-15       5.00642e-08       4.98673e-01       2.47918e-01       4.98673e-01      
 7.56000e-01       1.40447e-05       2.12473e-06       2.90785e-15       5.20647e-08       4.98673e-01       2.54976e-01       4.98673e-01      
 7.65000e-01       1.45149e-05       2.25326e-06       2.91505e-15       5.40948e-08       4.98673e-01       2.62071e-01       4.98673e-01      
 7.74000e-01       1.49834e-05       2.38600e-06       2.92186e-15       5.61540e-08       4.98673e-01       2.69199e-01       4.98673e-01      
 7.83000e-01       1.54498e-05       2.52296e-06       2.92832e-15       5.82421e-08       4.98673e-01       2.76357e-01       4.98673e-01      
 7.92000e-01       1.59139e-05       2.66410e-06       2.93444e-15       6.03586e-08       4.98673e-01       2.83544e-01       4.98673e-01      
 8.01000e-01       1.63756e-05       2.80941e-06       2.94026e-15       6.25032e-08       4.98673e-01       2.90758e-01       4.98673e-01      
 8.10000e-01       1.68346e-05       2.95886e-06       2.94580e-15       6.46757e-08       4.98673e-01       2.97996e-01       4.98673e-01      
 8.19000e-01       1.72910e-05       3.11242e-06       2.95107e-15       6.68759e-08       4.98673e-01       3.05256e-01       4.98673e-01      
 8.28000e-01       1.77445e-05       3.27009e-06       2.95609e-15       6.91036e-08       4.98673e-01       3.12537e-01       4.98673e-01      
 8.37000e-01       1.81950e-05       3.43182e-06       2.96089e-15       7.13587e-08       4.98673e-01       3.19838e-01       4.98673e-01      
 8.46000e-01       1.86425e-05       3.59759e-06       2.96549e-15       7.36409e-08       4.98673e-01       3.27157e-01       4.98673e-01      
 8.55000e-01       1.90869e-05       3.76737e-06       2.96988e-15       7.59504e-08       4.98673e-01       3.34493e-01       4.98673e-01      
 8.64000e-01       1.95281e-05       3.94114e-06       2.97409e-15       7.82869e-08       4.98673e-01       3.41844e-01       4.98673e-01      
 8.73000e-01       1.99661e-05       4.11886e-06       2.97814e-15       8.06505e-08       4.98673e-01       3.49211e-01       4.98673e-01      
 8.82000e-01       2.04007e-05       4.30051e-06       2.98203e-15       8.30412e-08       4.98673e-01       3.56591e-01       4.98673e-01      
 8.91000e-01       2.08321e-05       4.48606e-06       2.98576e-15       8.54591e-08       4.98673e-01       3.63985e-01       4.98673e-01      
 9.00000e-01       2.12600e-05       4.67547e-06       2.98937e-15       8.79041e-08       4.98673e-01       3.71391e-01       4.98673e-01      
 9.09000e-01       2.16845e-05       4.86872e-06       2.99284e-15       9.03764e-08       4.98673e-01       3.78809e-01       4.98673e-01      
 9.18000e-01       2.21056e-05       5.06577e-06       2.99619e-15       9.28762e-08       4.98673e-01       3.86238e-01       4.98673e-01      
 9.27000e-01       2.25231e-05       5.26660e-06       2.99943e-15       9.54034e-08       4.98673e-01       3.93678e-01       4.98673e-01      
 9.36000e-01       2.29371e-05       5.47117e-06       3.00256e-15       9.79584e-08       4.98673e-01       4.01128e-01       4.98673e-01      
 9.45000e-01       2.33476e-05       5.67945e-06       3.00560e-15       1.00541e-07       4.98673e-01       4.08589e-01       4.98673e-01      
 9.54000e-01       2.37544e-05       5.89140e-06       3.00854e-15       1.03152e-07       4.98673e-01       4.16059e-01       4.98673e-01      
 9.63000e-01       2.41577e-05       6.10700e-06       3.01139e-15       1.05791e-07       4.98673e-01       4.23538e-01       4.98673e-01      
 9.72000e-01       2.45573e-05       6.32622e-06       3.01416e-15       1.08459e-07       4.98673e-01       4.31027e-01       4.98673e-01      
 9.81000e-01       2.49532e-05       6.54901e-06       3.01685e-15       1.11155e-07       4.98673e-01       4.38524e-01       4.98673e-01      
 9.90000e-01       2.53454e-05       6.77535e-06       3.01946e-15       1.13881e-07       4.98673e-01       4.46030e-01       4.98673e-01      
 9.99000e-01       2.57339e-05       7.00520e-06       3.02201e-15       1.16636e-07       4.98673e-01       4.53545e-01       4.98673e-01      
 1.00800e+00       2.61186e-05       7.23854e-06       3.02449e-15       1.19421e-07       4.98673e-01       4.61068e-01       4.98673e-01      
 1.01700e+00       2.64996e-05       7.47531e-06       3.02690e-15       1.22235e-07       4.98673e-01       4.68600e-01       4.98673e-01      
 1.02600e+00       2.68767e-05       7.71550e-06       3.02926e-15       1.25080e-07       4.98673e-01       4.76139e-01       4.98673e-01      
 1.03500e+00       2.72500e-05       7.95907e-06       3.03156e-15       1.27956e-07       4.98673e-01       4.83687e-01       4.98673e-01      
 1.04400e+00       2.76194e-05       8.20598e-06       3.03380e-15       1.30863e-07       4.98673e-01       4.91243e-01       4.98673e-01      
 1.05300e+00       2.79849e-05       8.45619e-06       3.03600e-15       1.33802e-07       4.98673e-01       4.98808e-01       4.98673e-01      
 1.06200e+00       2.83466e-05       8.70968e-06       3.03814e-15       1.36772e-07       4.98673e-01       5.06380e-01       4.98673e-01      
 1.07100e+00       2.87043e-05       8.96640e-06       3.04024e-15       1.39775e-07       4.98673e-01       5.13961e-01       4.98673e-01      
 1.08000e+00       2.90580e-05       9.22633e-06       3.04229e-15       1.42811e-07       4.98673e-01       5.21550e-01       4.98673e-01      
 1.08900e+00       2.94078e-05       9.48942e-06       3.04430e-15       1.45881e-07       4.98673e-01       5.29147e-01       4.98673e-01      
 1.09800e+00       2.97535e-05       9.75564e-06       3.04627e-15       1.48984e-07       4.98673e-01       5.36752e-01       4.98673e-01      
 1.10700e+00       3.00952e-05       1.00250e-05       3.04820e-15       1.52122e-07       4.98673e-01       5.44366e-01       4.98673e-01      
 1.11600e+00       3.04329e-05       1.02973e-05       3.05009e-15       1.55295e-07       4.98673e-01       5.51988e-01       4.98673e-01      
 1.12500e+00       3.07665e-05       1.05727e-05       3.05195e-15       1.58504e-07       4.98673e-01       5.59619e-01       4.98673e-01      
 1.13400e+00       3.10960e-05       1.08511e-05       3.05377e-15       1.61749e-07       4.98673e-01       5.67258e-01       4.98673e-01      
 1.14300e+00       3.14214e-05       1.11324e-05       3.05556e-15       1.65031e-07       4.98673e-01       5.74905e-01       4.98673e-01      
 1.15200e+00       3.17427e-05       1.14167e-05       3.05732e-15       1.68350e-07       4.98673e-01       5.82562e-01       4.98673e-01      
 1.16100e+00       3.20599e-05       1.17038e-05       3.05905e-15       1.71707e-07       4.98673e-01       5.90227e-01       4.98673e-01      
 1.17000e+00       3.23728e-05       1.19937e-05       3.06074e-15       1.75104e-07       4.98673e-01       5.97902e-01       4.98673e-01      
 1.17900e+00       3.26817e-05       1.22865e-05       3.06241e-15       1.78540e-07       4.98673e-01       6.05585e-01       4.98673e-01      
 1.18800e+00       3.29863e-05       1.25820e-05       3.06405e-15       1.82016e-07       4.98673e-01       6.13278e-01       4.98673e-01      
 1.19700e+00       3.32867e-05       1.28802e-05       3.06567e-15       1.85534e-07       4.98673e-01       6.20979e-01       4.98673e-01      
 1.20600e+00       3.35829e-05       1.31811e-05       3.06726e-15       1.89094e-07       4.98673e-01       6.28691e-01       4.98673e-01      
 1.21500e+00       3.38749e-05       1.34847e-05       3.06883e-15       1.92696e-07       4.98673e-01       6.36411e-01       4.98673e-01      
