
dc (V)            getData("M0:gm    getData("M0:id    getData("M0:cg    getData("M0:gd    getData("M0:vt    getData("M0:vd    getData("M0:vt

 0.00000e+00       2.04961e-12       8.19880e-14       1.75210e-15       3.24945e-15       4.90677e-01       4.01722e-02       4.90677e-01      
 9.00000e-03       2.74590e-12       1.02535e-13       1.74523e-15       4.35386e-15       4.90677e-01       4.01722e-02       4.90677e-01      
 1.80000e-02       3.67852e-12       1.30459e-13       1.73864e-15       5.83340e-15       4.90677e-01       4.01723e-02       4.90677e-01      
 2.70000e-02       4.92759e-12       1.68223e-13       1.73235e-15       7.81540e-15       4.90677e-01       4.01723e-02       4.90677e-01      
 3.60000e-02       6.60028e-12       2.19127e-13       1.72637e-15       1.04703e-14       4.90677e-01       4.01724e-02       4.90677e-01      
 4.50000e-02       8.84000e-12       2.87592e-13       1.72073e-15       1.40262e-14       4.90677e-01       4.01725e-02       4.90677e-01      
 5.40000e-02       1.18385e-11       3.79538e-13       1.71547e-15       1.87885e-14       4.90677e-01       4.01726e-02       4.90677e-01      
 6.30000e-02       1.58523e-11       5.02889e-13       1.71063e-15       2.51658e-14       4.90677e-01       4.01728e-02       4.90677e-01      
 7.20000e-02       2.12239e-11       6.68249e-13       1.70625e-15       3.37045e-14       4.90677e-01       4.01730e-02       4.90677e-01      
 8.10000e-02       2.84112e-11       8.89800e-13       1.70240e-15       4.51356e-14       4.90677e-01       4.01733e-02       4.90677e-01      
 9.00000e-02       3.80250e-11       1.18650e-12       1.69915e-15       6.04360e-14       4.90677e-01       4.01737e-02       4.90677e-01      
 9.90000e-02       5.08807e-11       1.58370e-12       1.69660e-15       8.09110e-14       4.90677e-01       4.01743e-02       4.90677e-01      
 1.08000e-01       6.80650e-11       2.11523e-12       1.69487e-15       1.08304e-13       4.90677e-01       4.01750e-02       4.90677e-01      
 1.17000e-01       9.10252e-11       2.82626e-12       1.69408e-15       1.44942e-13       4.90677e-01       4.01760e-02       4.90677e-01      
 1.26000e-01       1.21683e-10       3.77707e-12       1.69436e-15       1.93927e-13       4.90677e-01       4.01773e-02       4.90677e-01      
 1.35000e-01       1.62590e-10       5.04787e-12       1.69591e-15       2.59390e-13       4.90677e-01       4.01790e-02       4.90677e-01      
 1.44000e-01       2.17139e-10       6.74552e-12       1.69900e-15       3.46831e-13       4.90677e-01       4.01814e-02       4.90677e-01      
 1.53000e-01       2.89816e-10       9.01209e-12       1.70390e-15       4.63561e-13       4.90677e-01       4.01845e-02       4.90677e-01      
 1.62000e-01       3.86549e-10       1.20363e-11       1.71094e-15       6.19282e-13       4.90677e-01       4.01886e-02       4.90677e-01      
 1.71000e-01       5.15151e-10       1.60682e-11       1.72046e-15       8.26854e-13       4.90677e-01       4.01942e-02       4.90677e-01      
 1.80000e-01       6.85889e-10       2.14390e-11       1.73287e-15       1.10328e-12       4.90677e-01       4.02016e-02       4.90677e-01      
 1.89000e-01       9.12209e-10       2.85859e-11       1.74863e-15       1.47099e-12       4.90677e-01       4.02114e-02       4.90677e-01      
 1.98000e-01       1.21165e-09       3.80847e-11       1.76823e-15       1.95950e-12       4.90677e-01       4.02244e-02       4.90677e-01      
 2.07000e-01       1.60699e-09       5.06921e-11       1.79221e-15       2.60748e-12       4.90677e-01       4.02417e-02       4.90677e-01      
 2.16000e-01       2.12766e-09       6.73983e-11       1.82113e-15       3.46547e-12       4.90677e-01       4.02646e-02       4.90677e-01      
 2.25000e-01       2.81141e-09       8.94949e-11       1.85555e-15       4.59911e-12       4.90677e-01       4.02949e-02       4.90677e-01      
 2.34000e-01       3.70638e-09       1.18658e-10       1.89606e-15       6.09326e-12       4.90677e-01       4.03347e-02       4.90677e-01      
 2.43000e-01       4.87345e-09       1.57054e-10       1.94319e-15       8.05690e-12       4.90677e-01       4.03871e-02       4.90677e-01      
 2.52000e-01       6.38886e-09       2.07462e-10       1.99744e-15       1.06289e-11       4.90677e-01       4.04557e-02       4.90677e-01      
 2.61000e-01       8.34712e-09       2.73430e-10       2.05926e-15       1.39845e-11       4.90677e-01       4.05451e-02       4.90677e-01      
 2.70000e-01       1.08641e-08       3.59449e-10       2.12899e-15       1.83429e-11       4.90677e-01       4.06612e-02       4.90677e-01      
 2.79000e-01       1.40798e-08       4.71162e-10       2.20688e-15       2.39745e-11       4.90677e-01       4.08110e-02       4.90677e-01      
 2.88000e-01       1.81612e-08       6.15589e-10       2.29303e-15       3.12082e-11       4.90677e-01       4.10032e-02       4.90677e-01      
 2.97000e-01       2.33044e-08       8.01388e-10       2.38746e-15       4.04379e-11       4.90677e-01       4.12480e-02       4.90677e-01      
 3.06000e-01       2.97353e-08       1.03911e-09       2.48999e-15       5.21260e-11       4.90677e-01       4.15575e-02       4.90677e-01      
 3.15000e-01       3.77097e-08       1.34148e-09       2.60034e-15       6.68040e-11       4.90677e-01       4.19453e-02       4.90677e-01      
 3.24000e-01       4.75109e-08       1.72365e-09       2.71807e-15       8.50679e-11       4.90677e-01       4.24264e-02       4.90677e-01      
 3.33000e-01       5.94456e-08       2.20344e-09       2.84262e-15       1.07568e-10       4.90677e-01       4.30171e-02       4.90677e-01      
 3.42000e-01       7.38373e-08       2.80150e-09       2.97331e-15       1.34991e-10       4.90677e-01       4.37339e-02       4.90677e-01      
 3.51000e-01       9.10171e-08       3.54144e-09       3.10935e-15       1.68039e-10       4.90677e-01       4.45937e-02       4.90677e-01      
 3.60000e-01       1.11313e-07       4.44984e-09       3.24986e-15       2.07401e-10       4.90677e-01       4.56119e-02       4.90677e-01      
 3.69000e-01       1.35038e-07       5.55619e-09       3.39391e-15       2.53728e-10       4.90677e-01       4.68026e-02       4.90677e-01      
 3.78000e-01       1.62483e-07       6.89268e-09       3.54051e-15       3.07602e-10       4.90677e-01       4.81774e-02       4.90677e-01      
 3.87000e-01       1.93906e-07       8.49400e-09       3.68868e-15       3.69521e-10       4.90677e-01       4.97453e-02       4.90677e-01      
 3.96000e-01       2.29538e-07       1.03970e-08       3.83743e-15       4.39889e-10       4.90677e-01       5.15121e-02       4.90677e-01      
 4.05000e-01       2.69584e-07       1.26405e-08       3.98580e-15       5.19009e-10       4.90677e-01       5.34809e-02       4.90677e-01      
 4.14000e-01       3.14238e-07       1.52652e-08       4.13288e-15       6.07100e-10       4.90677e-01       5.56525e-02       4.90677e-01      
 4.23000e-01       3.63692e-07       1.83134e-08       4.27784e-15       7.04305e-10       4.90677e-01       5.80254e-02       4.90677e-01      
 4.32000e-01       4.18156e-07       2.18291e-08       4.41991e-15       8.10717e-10       4.90677e-01       6.05973e-02       4.90677e-01      
 4.41000e-01       4.77861e-07       2.58586e-08       4.55842e-15       9.26393e-10       4.90677e-01       6.33648e-02       4.90677e-01      
 4.50000e-01       5.43062e-07       3.04502e-08       4.69280e-15       1.05138e-09       4.90677e-01       6.63245e-02       4.90677e-01      
 4.59000e-01       6.14036e-07       3.56544e-08       4.82258e-15       1.18571e-09       4.90677e-01       6.94727e-02       4.90677e-01      
 4.68000e-01       6.91070e-07       4.15247e-08       4.94737e-15       1.32943e-09       4.90677e-01       7.28065e-02       4.90677e-01      
 4.77000e-01       7.74449e-07       4.81168e-08       5.06690e-15       1.48261e-09       4.90677e-01       7.63228e-02       4.90677e-01      
 4.86000e-01       8.64438e-07       5.54890e-08       5.18097e-15       1.64530e-09       4.90677e-01       8.00191e-02       4.90677e-01      
 4.95000e-01       9.61268e-07       6.37020e-08       5.28947e-15       1.81756e-09       4.90677e-01       8.38928e-02       4.90677e-01      
 5.04000e-01       1.06512e-06       7.28181e-08       5.39236e-15       1.99947e-09       4.90677e-01       8.79417e-02       4.90677e-01      
 5.13000e-01       1.17613e-06       8.29011e-08       5.48966e-15       2.19109e-09       4.90677e-01       9.21631e-02       4.90677e-01      
 5.22000e-01       1.29434e-06       9.40158e-08       5.58146e-15       2.39246e-09       4.90677e-01       9.65543e-02       4.90677e-01      
 5.31000e-01       1.41974e-06       1.06227e-07       5.66788e-15       2.60362e-09       4.90677e-01       1.01112e-01       4.90677e-01      
 5.40000e-01       1.55225e-06       1.19599e-07       5.74908e-15       2.82458e-09       4.90677e-01       1.05833e-01       4.90677e-01      
 5.49000e-01       1.69171e-06       1.34195e-07       5.82525e-15       3.05533e-09       4.90677e-01       1.10713e-01       4.90677e-01      
 5.58000e-01       1.83791e-06       1.50077e-07       5.89660e-15       3.29582e-09       4.90677e-01       1.15748e-01       4.90677e-01      
 5.67000e-01       1.99056e-06       1.67304e-07       5.96336e-15       3.54602e-09       4.90677e-01       1.20933e-01       4.90677e-01      
 5.76000e-01       2.14936e-06       1.85933e-07       6.02577e-15       3.80582e-09       4.90677e-01       1.26262e-01       4.90677e-01      
 5.85000e-01       2.31392e-06       2.06018e-07       6.08406e-15       4.07514e-09       4.90677e-01       1.31730e-01       4.90677e-01      
 5.94000e-01       2.48387e-06       2.27608e-07       6.13848e-15       4.35384e-09       4.90677e-01       1.37332e-01       4.90677e-01      
 6.03000e-01       2.65878e-06       2.50750e-07       6.18927e-15       4.64180e-09       4.90677e-01       1.43061e-01       4.90677e-01      
 6.12000e-01       2.83823e-06       2.75488e-07       6.23666e-15       4.93887e-09       4.90677e-01       1.48910e-01       4.90677e-01      
 6.21000e-01       3.02179e-06       3.01859e-07       6.28087e-15       5.24488e-09       4.90677e-01       1.54875e-01       4.90677e-01      
 6.30000e-01       3.20904e-06       3.29899e-07       6.32212e-15       5.55968e-09       4.90677e-01       1.60948e-01       4.90677e-01      
 6.39000e-01       3.39957e-06       3.59640e-07       6.36063e-15       5.88309e-09       4.90677e-01       1.67124e-01       4.90677e-01      
 6.48000e-01       3.59298e-06       3.91108e-07       6.39658e-15       6.21494e-09       4.90677e-01       1.73396e-01       4.90677e-01      
 6.57000e-01       3.78888e-06       4.24329e-07       6.43017e-15       6.55507e-09       4.90677e-01       1.79759e-01       4.90677e-01      
 6.66000e-01       3.98693e-06       4.59322e-07       6.46157e-15       6.90330e-09       4.90677e-01       1.86207e-01       4.90677e-01      
 6.75000e-01       4.18679e-06       4.96107e-07       6.49094e-15       7.25948e-09       4.90677e-01       1.92735e-01       4.90677e-01      
 6.84000e-01       4.38815e-06       5.34696e-07       6.51843e-15       7.62344e-09       4.90677e-01       1.99337e-01       4.90677e-01      
 6.93000e-01       4.59074e-06       5.75104e-07       6.54420e-15       7.99505e-09       4.90677e-01       2.06009e-01       4.90677e-01      
 7.02000e-01       4.79428e-06       6.17339e-07       6.56837e-15       8.37417e-09       4.90677e-01       2.12747e-01       4.90677e-01      
 7.11000e-01       4.99856e-06       6.61410e-07       6.59106e-15       8.76065e-09       4.90677e-01       2.19545e-01       4.90677e-01      
 7.20000e-01       5.20335e-06       7.07321e-07       6.61240e-15       9.15438e-09       4.90677e-01       2.26400e-01       4.90677e-01      
 7.29000e-01       5.40847e-06       7.55077e-07       6.63247e-15       9.55524e-09       4.90677e-01       2.33309e-01       4.90677e-01      
 7.38000e-01       5.61376e-06       8.04679e-07       6.65139e-15       9.96314e-09       4.90677e-01       2.40267e-01       4.90677e-01      
 7.47000e-01       5.81906e-06       8.56129e-07       6.66923e-15       1.03780e-08       4.90677e-01       2.47272e-01       4.90677e-01      
 7.56000e-01       6.02424e-06       9.09426e-07       6.68609e-15       1.07997e-08       4.90677e-01       2.54321e-01       4.90677e-01      
 7.65000e-01       6.22918e-06       9.64569e-07       6.70203e-15       1.12282e-08       4.90677e-01       2.61410e-01       4.90677e-01      
 7.74000e-01       6.43377e-06       1.02155e-06       6.71714e-15       1.16634e-08       4.90677e-01       2.68538e-01       4.90677e-01      
 7.83000e-01       6.63794e-06       1.08038e-06       6.73146e-15       1.21052e-08       4.90677e-01       2.75702e-01       4.90677e-01      
 7.92000e-01       6.84159e-06       1.14104e-06       6.74506e-15       1.25537e-08       4.90677e-01       2.82900e-01       4.90677e-01      
 8.01000e-01       7.04465e-06       1.20353e-06       6.75799e-15       1.30088e-08       4.90677e-01       2.90130e-01       4.90677e-01      
 8.10000e-01       7.24706e-06       1.26784e-06       6.77030e-15       1.34704e-08       4.90677e-01       2.97390e-01       4.90677e-01      
 8.19000e-01       7.44877e-06       1.33397e-06       6.78204e-15       1.39386e-08       4.90677e-01       3.04679e-01       4.90677e-01      
 8.28000e-01       7.64973e-06       1.40192e-06       6.79325e-15       1.44133e-08       4.90677e-01       3.11996e-01       4.90677e-01      
 8.37000e-01       7.84988e-06       1.47167e-06       6.80396e-15       1.48945e-08       4.90677e-01       3.19338e-01       4.90677e-01      
 8.46000e-01       8.04920e-06       1.54321e-06       6.81422e-15       1.53822e-08       4.90677e-01       3.26706e-01       4.90677e-01      
 8.55000e-01       8.24764e-06       1.61655e-06       6.82405e-15       1.58764e-08       4.90677e-01       3.34097e-01       4.90677e-01      
 8.64000e-01       8.44517e-06       1.69167e-06       6.83348e-15       1.63772e-08       4.90677e-01       3.41511e-01       4.90677e-01      
 8.73000e-01       8.64176e-06       1.76856e-06       6.84253e-15       1.68845e-08       4.90677e-01       3.48947e-01       4.90677e-01      
 8.82000e-01       8.83739e-06       1.84721e-06       6.85125e-15       1.73984e-08       4.90677e-01       3.56404e-01       4.90677e-01      
 8.91000e-01       9.03202e-06       1.92762e-06       6.85964e-15       1.79190e-08       4.90677e-01       3.63881e-01       4.90677e-01      
 9.00000e-01       9.22564e-06       2.00978e-06       6.86772e-15       1.84462e-08       4.90677e-01       3.71379e-01       4.90677e-01      
 9.09000e-01       9.41821e-06       2.09368e-06       6.87552e-15       1.89800e-08       4.90677e-01       3.78895e-01       4.90677e-01      
 9.18000e-01       9.60971e-06       2.17930e-06       6.88306e-15       1.95207e-08       4.90677e-01       3.86431e-01       4.90677e-01      
 9.27000e-01       9.80013e-06       2.26665e-06       6.89035e-15       2.00681e-08       4.90677e-01       3.93985e-01       4.90677e-01      
 9.36000e-01       9.98943e-06       2.35570e-06       6.89740e-15       2.06224e-08       4.90677e-01       4.01556e-01       4.90677e-01      
 9.45000e-01       1.01776e-05       2.44645e-06       6.90423e-15       2.11836e-08       4.90677e-01       4.09146e-01       4.90677e-01      
 9.54000e-01       1.03646e-05       2.53889e-06       6.91086e-15       2.17519e-08       4.90677e-01       4.16753e-01       4.90677e-01      
 9.63000e-01       1.05505e-05       2.63300e-06       6.91728e-15       2.23272e-08       4.90677e-01       4.24376e-01       4.90677e-01      
 9.72000e-01       1.07351e-05       2.72879e-06       6.92353e-15       2.29096e-08       4.90677e-01       4.32017e-01       4.90677e-01      
 9.81000e-01       1.09186e-05       2.82623e-06       6.92959e-15       2.34993e-08       4.90677e-01       4.39674e-01       4.90677e-01      
 9.90000e-01       1.11008e-05       2.92531e-06       6.93550e-15       2.40963e-08       4.90677e-01       4.47348e-01       4.90677e-01      
 9.99000e-01       1.12817e-05       3.02603e-06       6.94124e-15       2.47007e-08       4.90677e-01       4.55038e-01       4.90677e-01      
 1.00800e+00       1.14614e-05       3.12838e-06       6.94683e-15       2.53126e-08       4.90677e-01       4.62744e-01       4.90677e-01      
 1.01700e+00       1.16398e-05       3.23233e-06       6.95229e-15       2.59322e-08       4.90677e-01       4.70466e-01       4.90677e-01      
 1.02600e+00       1.18168e-05       3.33788e-06       6.95761e-15       2.65595e-08       4.90677e-01       4.78204e-01       4.90677e-01      
 1.03500e+00       1.19926e-05       3.44502e-06       6.96280e-15       2.71946e-08       4.90677e-01       4.85958e-01       4.90677e-01      
 1.04400e+00       1.21669e-05       3.55374e-06       6.96786e-15       2.78377e-08       4.90677e-01       4.93728e-01       4.90677e-01      
 1.05300e+00       1.23399e-05       3.66402e-06       6.97281e-15       2.84888e-08       4.90677e-01       5.01514e-01       4.90677e-01      
 1.06200e+00       1.25115e-05       3.77585e-06       6.97765e-15       2.91482e-08       4.90677e-01       5.09315e-01       4.90677e-01      
 1.07100e+00       1.26817e-05       3.88921e-06       6.98239e-15       2.98159e-08       4.90677e-01       5.17132e-01       4.90677e-01      
 1.08000e+00       1.28505e-05       4.00411e-06       6.98702e-15       3.04921e-08       4.90677e-01       5.24965e-01       4.90677e-01      
 1.08900e+00       1.30178e-05       4.12051e-06       6.99155e-15       3.11769e-08       4.90677e-01       5.32814e-01       4.90677e-01      
 1.09800e+00       1.31836e-05       4.23842e-06       6.99599e-15       3.18706e-08       4.90677e-01       5.40679e-01       4.90677e-01      
 1.10700e+00       1.33479e-05       4.35781e-06       7.00034e-15       3.25731e-08       4.90677e-01       5.48560e-01       4.90677e-01      
 1.11600e+00       1.35107e-05       4.47867e-06       7.00460e-15       3.32848e-08       4.90677e-01       5.56456e-01       4.90677e-01      
 1.12500e+00       1.36720e-05       4.60099e-06       7.00878e-15       3.40058e-08       4.90677e-01       5.64369e-01       4.90677e-01      
 1.13400e+00       1.38318e-05       4.72476e-06       7.01288e-15       3.47362e-08       4.90677e-01       5.72297e-01       4.90677e-01      
 1.14300e+00       1.39900e-05       4.84995e-06       7.01690e-15       3.54762e-08       4.90677e-01       5.80242e-01       4.90677e-01      
 1.15200e+00       1.41466e-05       4.97656e-06       7.02085e-15       3.62261e-08       4.90677e-01       5.88202e-01       4.90677e-01      
 1.16100e+00       1.43016e-05       5.10458e-06       7.02473e-15       3.69860e-08       4.90677e-01       5.96179e-01       4.90677e-01      
 1.17000e+00       1.44550e-05       5.23398e-06       7.02854e-15       3.77561e-08       4.90677e-01       6.04172e-01       4.90677e-01      
 1.17900e+00       1.46068e-05       5.36476e-06       7.03228e-15       3.85368e-08       4.90677e-01       6.12181e-01       4.90677e-01      
 1.18800e+00       1.47569e-05       5.49690e-06       7.03596e-15       3.93280e-08       4.90677e-01       6.20207e-01       4.90677e-01      
 1.19700e+00       1.49054e-05       5.63038e-06       7.03958e-15       4.01302e-08       4.90677e-01       6.28249e-01       4.90677e-01      
 1.20600e+00       1.50523e-05       5.76518e-06       7.04313e-15       4.09435e-08       4.90677e-01       6.36308e-01       4.90677e-01      
 1.21500e+00       1.51974e-05       5.90131e-06       7.04663e-15       4.17683e-08       4.90677e-01       6.44384e-01       4.90677e-01      
