
dc (V)            getData("M0:gm    getData("M0:id    getData("M0:cg    getData("M0:gd    getData("M0:vt    getData("M0:vd    getData("M0:vt

 0.00000e+00       1.14410e-12       5.40282e-14       3.09300e-15       1.08649e-15       4.87110e-01       3.95096e-02       4.87110e-01      
 9.00000e-03       1.53397e-12       6.51090e-14       3.08044e-15       1.45690e-15       4.87110e-01       3.95096e-02       4.87110e-01      
 1.80000e-02       2.05657e-12       8.03646e-14       3.06841e-15       1.95352e-15       4.87110e-01       3.95097e-02       4.87110e-01      
 2.70000e-02       2.75702e-12       1.01174e-13       3.05693e-15       2.61931e-15       4.87110e-01       3.95097e-02       4.87110e-01      
 3.60000e-02       3.69574e-12       1.29390e-13       3.04607e-15       3.51182e-15       4.87110e-01       3.95098e-02       4.87110e-01      
 4.50000e-02       4.95364e-12       1.67496e-13       3.03585e-15       4.70815e-15       4.87110e-01       3.95099e-02       4.87110e-01      
 5.40000e-02       6.63896e-12       2.18822e-13       3.02635e-15       6.31157e-15       4.87110e-01       3.95100e-02       4.87110e-01      
 6.30000e-02       8.89654e-12       2.87832e-13       3.01765e-15       8.46036e-15       4.87110e-01       3.95102e-02       4.87110e-01      
 7.20000e-02       1.19201e-11       3.80502e-13       3.00985e-15       1.13396e-14       4.87110e-01       3.95105e-02       4.87110e-01      
 8.10000e-02       1.59684e-11       5.04831e-13       3.00307e-15       1.51970e-14       4.87110e-01       3.95108e-02       4.87110e-01      
 9.00000e-02       2.13874e-11       6.71524e-13       2.99745e-15       2.03638e-14       4.87110e-01       3.95112e-02       4.87110e-01      
 9.90000e-02       2.86386e-11       8.94896e-13       2.99320e-15       2.72831e-14       4.87110e-01       3.95118e-02       4.87110e-01      
 1.08000e-01       3.83377e-11       1.19408e-12       2.99052e-15       3.65468e-14       4.87110e-01       3.95126e-02       4.87110e-01      
 1.17000e-01       5.13051e-11       1.59462e-12       2.98969e-15       4.89453e-14       4.87110e-01       3.95137e-02       4.87110e-01      
 1.26000e-01       6.86304e-11       2.13064e-12       2.99094e-15       6.55333e-14       4.87110e-01       3.95151e-02       4.87110e-01      
 1.35000e-01       9.17612e-11       2.84755e-12       2.99466e-15       8.77158e-14       4.87110e-01       3.95170e-02       4.87110e-01      
 1.44000e-01       1.22622e-10       3.80589e-12       3.00137e-15       1.17364e-13       4.87110e-01       3.95195e-02       4.87110e-01      
 1.53000e-01       1.63758e-10       5.08618e-12       3.01161e-15       1.56966e-13       4.87110e-01       3.95229e-02       4.87110e-01      
 1.62000e-01       2.18533e-10       6.79538e-12       3.02598e-15       2.09825e-13       4.87110e-01       3.95274e-02       4.87110e-01      
 1.71000e-01       2.91380e-10       9.07534e-12       3.04517e-15       2.80319e-13       4.87110e-01       3.95334e-02       4.87110e-01      
 1.80000e-01       3.88121e-10       1.21138e-11       3.06996e-15       3.74239e-13       4.87110e-01       3.95414e-02       4.87110e-01      
 1.89000e-01       5.16381e-10       1.61587e-11       3.10122e-15       4.99222e-13       4.87110e-01       3.95520e-02       4.87110e-01      
 1.98000e-01       6.86095e-10       2.15365e-11       3.13989e-15       6.65311e-13       4.87110e-01       3.95661e-02       4.87110e-01      
 2.07000e-01       9.10157e-10       2.86762e-11       3.18696e-15       8.85670e-13       4.87110e-01       3.95849e-02       4.87110e-01      
 2.16000e-01       1.20520e-09       3.81387e-11       3.24349e-15       1.17747e-12       4.87110e-01       3.96097e-02       4.87110e-01      
 2.25000e-01       1.59254e-09       5.06552e-11       3.31053e-15       1.56303e-12       4.87110e-01       3.96424e-02       4.87110e-01      
 2.34000e-01       2.09931e-09       6.71741e-11       3.38912e-15       2.07112e-12       4.87110e-01       3.96856e-02       4.87110e-01      
 2.43000e-01       2.75974e-09       8.89189e-11       3.48026e-15       2.73866e-12       4.87110e-01       3.97423e-02       4.87110e-01      
 2.52000e-01       3.61659e-09       1.17459e-10       3.58483e-15       3.61260e-12       4.87110e-01       3.98165e-02       4.87110e-01      
 2.61000e-01       4.72275e-09       1.54792e-10       3.70358e-15       4.75206e-12       4.87110e-01       3.99132e-02       4.87110e-01      
 2.70000e-01       6.14283e-09       2.03444e-10       3.83708e-15       6.23074e-12       4.87110e-01       4.00385e-02       4.87110e-01      
 2.79000e-01       7.95470e-09       2.66583e-10       3.98572e-15       8.13928e-12       4.87110e-01       4.01999e-02       4.87110e-01      
 2.88000e-01       1.02509e-08       3.48140e-10       4.14962e-15       1.05876e-11       4.87110e-01       4.04068e-02       4.87110e-01      
 2.97000e-01       1.31396e-08       4.52952e-10       4.32867e-15       1.37065e-11       4.87110e-01       4.06696e-02       4.87110e-01      
 3.06000e-01       1.67451e-08       5.86900e-10       4.52248e-15       1.76491e-11       4.87110e-01       4.10010e-02       4.87110e-01      
 3.15000e-01       2.12075e-08       7.57057e-10       4.73043e-15       2.25905e-11       4.87110e-01       4.14150e-02       4.87110e-01      
 3.24000e-01       2.66815e-08       9.71826e-10       4.95162e-15       2.87256e-11       4.87110e-01       4.19268e-02       4.87110e-01      
 3.33000e-01       3.33337e-08       1.24106e-09       5.18492e-15       3.62661e-11       4.87110e-01       4.25528e-02       4.87110e-01      
 3.42000e-01       4.13390e-08       1.57614e-09       5.42898e-15       4.54346e-11       4.87110e-01       4.33095e-02       4.87110e-01      
 3.51000e-01       5.08754e-08       1.99005e-09       5.68229e-15       5.64572e-11       4.87110e-01       4.42129e-02       4.87110e-01      
 3.60000e-01       6.21181e-08       2.49738e-09       5.94318e-15       6.95551e-11       4.87110e-01       4.52781e-02       4.87110e-01      
 3.69000e-01       7.52341e-08       3.11424e-09       6.20988e-15       8.49364e-11       4.87110e-01       4.65180e-02       4.87110e-01      
 3.78000e-01       9.03768e-08       3.85821e-09       6.48057e-15       1.02788e-10       4.87110e-01       4.79430e-02       4.87110e-01      
 3.87000e-01       1.07685e-07       4.74815e-09       6.75342e-15       1.23272e-10       4.87110e-01       4.95608e-02       4.87110e-01      
 3.96000e-01       1.27281e-07       5.80414e-09       7.02661e-15       1.46520e-10       4.87110e-01       5.13762e-02       4.87110e-01      
 4.05000e-01       1.49279e-07       7.04728e-09       7.29841e-15       1.72635e-10       4.87110e-01       5.33911e-02       4.87110e-01      
 4.14000e-01       1.73789e-07       8.49969e-09       7.56720e-15       2.01695e-10       4.87110e-01       5.56057e-02       4.87110e-01      
 4.23000e-01       2.00923e-07       1.01845e-08       7.83148e-15       2.33759e-10       4.87110e-01       5.80181e-02       4.87110e-01      
 4.32000e-01       2.30804e-07       1.21258e-08       8.08990e-15       2.68868e-10       4.87110e-01       6.06256e-02       4.87110e-01      
 4.41000e-01       2.63568e-07       1.43490e-08       8.34131e-15       3.07058e-10       4.87110e-01       6.34249e-02       4.87110e-01      
 4.50000e-01       2.99362e-07       1.68807e-08       8.58473e-15       3.48357e-10       4.87110e-01       6.64128e-02       4.87110e-01      
 4.59000e-01       3.38344e-07       1.97489e-08       8.81934e-15       3.92796e-10       4.87110e-01       6.95860e-02       4.87110e-01      
 4.68000e-01       3.80674e-07       2.29829e-08       9.04453e-15       4.40403e-10       4.87110e-01       7.29417e-02       4.87110e-01      
 4.77000e-01       4.26509e-07       2.66137e-08       9.25986e-15       4.91211e-10       4.87110e-01       7.64772e-02       4.87110e-01      
 4.86000e-01       4.75989e-07       3.06734e-08       9.46502e-15       5.45254e-10       4.87110e-01       8.01903e-02       4.87110e-01      
 4.95000e-01       5.29235e-07       3.51953e-08       9.65987e-15       6.02563e-10       4.87110e-01       8.40788e-02       4.87110e-01      
 5.04000e-01       5.86340e-07       4.02139e-08       9.84439e-15       6.63169e-10       4.87110e-01       8.81402e-02       4.87110e-01      
 5.13000e-01       6.47362e-07       4.57641e-08       1.00187e-14       7.27099e-10       4.87110e-01       9.23722e-02       4.87110e-01      
 5.22000e-01       7.12322e-07       5.18813e-08       1.01829e-14       7.94373e-10       4.87110e-01       9.67720e-02       4.87110e-01      
 5.31000e-01       7.81204e-07       5.86009e-08       1.03374e-14       8.65005e-10       4.87110e-01       1.01337e-01       4.87110e-01      
 5.40000e-01       8.53952e-07       6.59580e-08       1.04824e-14       9.39002e-10       4.87110e-01       1.06062e-01       4.87110e-01      
 5.49000e-01       9.30474e-07       7.39870e-08       1.06182e-14       1.01636e-09       4.87110e-01       1.10945e-01       4.87110e-01      
 5.58000e-01       1.01064e-06       8.27213e-08       1.07454e-14       1.09707e-09       4.87110e-01       1.15981e-01       4.87110e-01      
 5.67000e-01       1.09431e-06       9.21930e-08       1.08644e-14       1.18111e-09       4.87110e-01       1.21164e-01       4.87110e-01      
 5.76000e-01       1.18128e-06       1.02433e-07       1.09755e-14       1.26845e-09       4.87110e-01       1.26490e-01       4.87110e-01      
 5.85000e-01       1.27137e-06       1.13470e-07       1.10792e-14       1.35906e-09       4.87110e-01       1.31953e-01       4.87110e-01      
 5.94000e-01       1.36436e-06       1.25330e-07       1.11761e-14       1.45290e-09       4.87110e-01       1.37547e-01       4.87110e-01      
 6.03000e-01       1.46003e-06       1.38040e-07       1.12664e-14       1.54992e-09       4.87110e-01       1.43266e-01       4.87110e-01      
 6.12000e-01       1.55815e-06       1.51623e-07       1.13506e-14       1.65007e-09       4.87110e-01       1.49104e-01       4.87110e-01      
 6.21000e-01       1.65849e-06       1.66098e-07       1.14292e-14       1.75330e-09       4.87110e-01       1.55056e-01       4.87110e-01      
 6.30000e-01       1.76082e-06       1.81486e-07       1.15026e-14       1.85955e-09       4.87110e-01       1.61114e-01       4.87110e-01      
 6.39000e-01       1.86494e-06       1.97803e-07       1.15710e-14       1.96877e-09       4.87110e-01       1.67274e-01       4.87110e-01      
 6.48000e-01       1.97062e-06       2.15064e-07       1.16349e-14       2.08089e-09       4.87110e-01       1.73528e-01       4.87110e-01      
 6.57000e-01       2.07767e-06       2.33282e-07       1.16946e-14       2.19587e-09       4.87110e-01       1.79873e-01       4.87110e-01      
 6.66000e-01       2.18590e-06       2.52469e-07       1.17504e-14       2.31365e-09       4.87110e-01       1.86302e-01       4.87110e-01      
 6.75000e-01       2.29514e-06       2.72635e-07       1.18026e-14       2.43417e-09       4.87110e-01       1.92809e-01       4.87110e-01      
 6.84000e-01       2.40523e-06       2.93788e-07       1.18516e-14       2.55738e-09       4.87110e-01       1.99391e-01       4.87110e-01      
 6.93000e-01       2.51602e-06       3.15935e-07       1.18974e-14       2.68324e-09       4.87110e-01       2.06043e-01       4.87110e-01      
 7.02000e-01       2.62738e-06       3.39082e-07       1.19404e-14       2.81170e-09       4.87110e-01       2.12759e-01       4.87110e-01      
 7.11000e-01       2.73919e-06       3.63233e-07       1.19808e-14       2.94271e-09       4.87110e-01       2.19537e-01       4.87110e-01      
 7.20000e-01       2.85134e-06       3.88391e-07       1.20188e-14       3.07625e-09       4.87110e-01       2.26372e-01       4.87110e-01      
 7.29000e-01       2.96372e-06       4.14560e-07       1.20545e-14       3.21226e-09       4.87110e-01       2.33260e-01       4.87110e-01      
 7.38000e-01       3.07626e-06       4.41742e-07       1.20883e-14       3.35073e-09       4.87110e-01       2.40199e-01       4.87110e-01      
 7.47000e-01       3.18887e-06       4.69936e-07       1.21201e-14       3.49161e-09       4.87110e-01       2.47186e-01       4.87110e-01      
 7.56000e-01       3.30148e-06       4.99144e-07       1.21501e-14       3.63489e-09       4.87110e-01       2.54217e-01       4.87110e-01      
 7.65000e-01       3.41404e-06       5.29364e-07       1.21786e-14       3.78055e-09       4.87110e-01       2.61289e-01       4.87110e-01      
 7.74000e-01       3.52650e-06       5.60598e-07       1.22055e-14       3.92856e-09       4.87110e-01       2.68402e-01       4.87110e-01      
 7.83000e-01       3.63879e-06       5.92842e-07       1.22311e-14       4.07890e-09       4.87110e-01       2.75551e-01       4.87110e-01      
 7.92000e-01       3.75088e-06       6.26097e-07       1.22554e-14       4.23158e-09       4.87110e-01       2.82737e-01       4.87110e-01      
 8.01000e-01       3.86274e-06       6.60359e-07       1.22786e-14       4.38656e-09       4.87110e-01       2.89955e-01       4.87110e-01      
 8.10000e-01       3.97432e-06       6.95626e-07       1.23006e-14       4.54386e-09       4.87110e-01       2.97206e-01       4.87110e-01      
 8.19000e-01       4.08561e-06       7.31896e-07       1.23216e-14       4.70345e-09       4.87110e-01       3.04488e-01       4.87110e-01      
 8.28000e-01       4.19656e-06       7.69166e-07       1.23417e-14       4.86535e-09       4.87110e-01       3.11798e-01       4.87110e-01      
 8.37000e-01       4.30717e-06       8.07433e-07       1.23608e-14       5.02955e-09       4.87110e-01       3.19136e-01       4.87110e-01      
 8.46000e-01       4.41740e-06       8.46694e-07       1.23792e-14       5.19606e-09       4.87110e-01       3.26502e-01       4.87110e-01      
 8.55000e-01       4.52723e-06       8.86945e-07       1.23968e-14       5.36488e-09       4.87110e-01       3.33893e-01       4.87110e-01      
 8.64000e-01       4.63665e-06       9.28182e-07       1.24138e-14       5.53602e-09       4.87110e-01       3.41308e-01       4.87110e-01      
 8.73000e-01       4.74565e-06       9.70402e-07       1.24300e-14       5.70949e-09       4.87110e-01       3.48748e-01       4.87110e-01      
 8.82000e-01       4.85420e-06       1.01360e-06       1.24456e-14       5.88529e-09       4.87110e-01       3.56212e-01       4.87110e-01      
 8.91000e-01       4.96228e-06       1.05778e-06       1.24607e-14       6.06346e-09       4.87110e-01       3.63698e-01       4.87110e-01      
 9.00000e-01       5.06989e-06       1.10292e-06       1.24752e-14       6.24399e-09       4.87110e-01       3.71206e-01       4.87110e-01      
 9.09000e-01       5.17702e-06       1.14903e-06       1.24892e-14       6.42692e-09       4.87110e-01       3.78735e-01       4.87110e-01      
 9.18000e-01       5.28363e-06       1.19610e-06       1.25028e-14       6.61226e-09       4.87110e-01       3.86286e-01       4.87110e-01      
 9.27000e-01       5.38974e-06       1.24413e-06       1.25159e-14       6.80002e-09       4.87110e-01       3.93857e-01       4.87110e-01      
 9.36000e-01       5.49531e-06       1.29311e-06       1.25286e-14       6.99025e-09       4.87110e-01       4.01449e-01       4.87110e-01      
 9.45000e-01       5.60034e-06       1.34304e-06       1.25409e-14       7.18295e-09       4.87110e-01       4.09061e-01       4.87110e-01      
 9.54000e-01       5.70481e-06       1.39392e-06       1.25528e-14       7.37817e-09       4.87110e-01       4.16692e-01       4.87110e-01      
 9.63000e-01       5.80871e-06       1.44573e-06       1.25644e-14       7.57592e-09       4.87110e-01       4.24343e-01       4.87110e-01      
 9.72000e-01       5.91204e-06       1.49847e-06       1.25756e-14       7.77624e-09       4.87110e-01       4.32013e-01       4.87110e-01      
 9.81000e-01       6.01476e-06       1.55214e-06       1.25865e-14       7.97917e-09       4.87110e-01       4.39702e-01       4.87110e-01      
 9.90000e-01       6.11689e-06       1.60673e-06       1.25971e-14       8.18473e-09       4.87110e-01       4.47410e-01       4.87110e-01      
 9.99000e-01       6.21839e-06       1.66224e-06       1.26075e-14       8.39296e-09       4.87110e-01       4.55137e-01       4.87110e-01      
 1.00800e+00       6.31926e-06       1.71866e-06       1.26176e-14       8.60390e-09       4.87110e-01       4.62882e-01       4.87110e-01      
 1.01700e+00       6.41949e-06       1.77598e-06       1.26274e-14       8.81760e-09       4.87110e-01       4.70646e-01       4.87110e-01      
 1.02600e+00       6.51906e-06       1.83420e-06       1.26370e-14       9.03408e-09       4.87110e-01       4.78428e-01       4.87110e-01      
 1.03500e+00       6.61797e-06       1.89332e-06       1.26463e-14       9.25341e-09       4.87110e-01       4.86229e-01       4.87110e-01      
 1.04400e+00       6.71619e-06       1.95332e-06       1.26554e-14       9.47562e-09       4.87110e-01       4.94048e-01       4.87110e-01      
 1.05300e+00       6.81371e-06       2.01420e-06       1.26644e-14       9.70076e-09       4.87110e-01       5.01885e-01       4.87110e-01      
 1.06200e+00       6.91053e-06       2.07596e-06       1.26731e-14       9.92888e-09       4.87110e-01       5.09741e-01       4.87110e-01      
 1.07100e+00       7.00663e-06       2.13859e-06       1.26816e-14       1.01600e-08       4.87110e-01       5.17615e-01       4.87110e-01      
 1.08000e+00       7.10200e-06       2.20208e-06       1.26899e-14       1.03943e-08       4.87110e-01       5.25507e-01       4.87110e-01      
 1.08900e+00       7.19663e-06       2.26642e-06       1.26981e-14       1.06316e-08       4.87110e-01       5.33417e-01       4.87110e-01      
 1.09800e+00       7.29051e-06       2.33161e-06       1.27061e-14       1.08722e-08       4.87110e-01       5.41346e-01       4.87110e-01      
 1.10700e+00       7.38361e-06       2.39764e-06       1.27139e-14       1.11161e-08       4.87110e-01       5.49293e-01       4.87110e-01      
 1.11600e+00       7.47594e-06       2.46451e-06       1.27216e-14       1.13633e-08       4.87110e-01       5.57258e-01       4.87110e-01      
 1.12500e+00       7.56748e-06       2.53220e-06       1.27291e-14       1.16138e-08       4.87110e-01       5.65242e-01       4.87110e-01      
 1.13400e+00       7.65822e-06       2.60072e-06       1.27365e-14       1.18679e-08       4.87110e-01       5.73244e-01       4.87110e-01      
 1.14300e+00       7.74815e-06       2.67005e-06       1.27437e-14       1.21254e-08       4.87110e-01       5.81265e-01       4.87110e-01      
 1.15200e+00       7.83726e-06       2.74018e-06       1.27508e-14       1.23866e-08       4.87110e-01       5.89304e-01       4.87110e-01      
 1.16100e+00       7.92554e-06       2.81111e-06       1.27578e-14       1.26515e-08       4.87110e-01       5.97362e-01       4.87110e-01      
 1.17000e+00       8.01297e-06       2.88283e-06       1.27647e-14       1.29201e-08       4.87110e-01       6.05439e-01       4.87110e-01      
 1.17900e+00       8.09956e-06       2.95534e-06       1.27714e-14       1.31926e-08       4.87110e-01       6.13534e-01       4.87110e-01      
 1.18800e+00       8.18528e-06       3.02862e-06       1.27780e-14       1.34690e-08       4.87110e-01       6.21648e-01       4.87110e-01      
 1.19700e+00       8.27013e-06       3.10267e-06       1.27845e-14       1.37494e-08       4.87110e-01       6.29781e-01       4.87110e-01      
 1.20600e+00       8.35410e-06       3.17748e-06       1.27909e-14       1.40340e-08       4.87110e-01       6.37933e-01       4.87110e-01      
 1.21500e+00       8.43718e-06       3.25304e-06       1.27972e-14       1.43228e-08       4.87110e-01       6.46103e-01       4.87110e-01      
