
dc (V)            getData("M0:gm    getData("M0:id    getData("M0:cg    getData("M0:gd    getData("M0:vt    getData("M0:vd    getData("M0:vt

 0.00000e+00       1.55702e-11       5.10425e-13       3.10304e-16       7.35504e-14       5.30512e-01       4.88055e-02       5.30512e-01      
 9.00000e-03       2.07088e-11       6.71801e-13       3.09595e-16       9.78320e-14       5.30512e-01       4.88055e-02       5.30512e-01      
 1.80000e-02       2.75422e-11       8.86822e-13       3.08905e-16       1.30127e-13       5.30512e-01       4.88055e-02       5.30512e-01      
 2.70000e-02       3.66289e-11       1.17314e-12       3.08236e-16       1.73076e-13       5.30512e-01       4.88056e-02       5.30512e-01      
 3.60000e-02       4.87111e-11       1.55422e-12       3.07587e-16       2.30194e-13       5.30512e-01       4.88056e-02       5.30512e-01      
 4.50000e-02       6.47746e-11       2.06126e-12       3.06959e-16       3.06150e-13       5.30512e-01       4.88057e-02       5.30512e-01      
 5.40000e-02       8.61297e-11       2.73573e-12       3.06354e-16       4.07149e-13       5.30512e-01       4.88057e-02       5.30512e-01      
 6.30000e-02       1.14516e-10       3.63275e-12       3.05773e-16       5.41439e-13       5.30512e-01       4.88058e-02       5.30512e-01      
 7.20000e-02       1.52243e-10       4.82554e-12       3.05218e-16       7.19977e-13       5.30512e-01       4.88060e-02       5.30512e-01      
 8.10000e-02       2.02378e-10       6.41138e-12       3.04692e-16       9.57318e-13       5.30512e-01       4.88062e-02       5.30512e-01      
 9.00000e-02       2.68989e-10       8.51948e-12       3.04199e-16       1.27279e-12       5.30512e-01       4.88064e-02       5.30512e-01      
 9.90000e-02       3.57472e-10       1.13214e-11       3.03744e-16       1.69206e-12       5.30512e-01       4.88067e-02       5.30512e-01      
 1.08000e-01       4.74979e-10       1.50447e-11       3.03331e-16       2.24918e-12       5.30512e-01       4.88071e-02       5.30512e-01      
 1.17000e-01       6.30984e-10       1.99915e-11       3.02967e-16       2.98934e-12       5.30512e-01       4.88077e-02       5.30512e-01      
 1.26000e-01       8.38033e-10       2.65624e-11       3.02662e-16       3.97244e-12       5.30512e-01       4.88084e-02       5.30512e-01      
 1.35000e-01       1.11265e-09       3.52881e-11       3.02416e-16       5.27785e-12       5.30512e-01       4.88094e-02       5.30512e-01      
 1.44000e-01       1.47674e-09       4.68711e-11       3.02248e-16       7.01061e-12       5.30512e-01       4.88107e-02       5.30512e-01      
 1.53000e-01       1.95919e-09       6.22413e-11       3.02176e-16       9.30973e-12       5.30512e-01       4.88124e-02       5.30512e-01      
 1.62000e-01       2.59807e-09       8.26283e-11       3.02217e-16       1.23590e-11       5.30512e-01       4.88146e-02       5.30512e-01      
 1.71000e-01       3.44344e-09       1.09656e-10       3.02391e-16       1.64010e-11       5.30512e-01       4.88176e-02       5.30512e-01      
 1.80000e-01       4.56101e-09       1.45467e-10       3.02722e-16       2.17556e-11       5.30512e-01       4.88216e-02       5.30512e-01      
 1.89000e-01       6.03689e-09       1.92882e-10       3.03239e-16       2.88441e-11       5.30512e-01       4.88269e-02       5.30512e-01      
 1.98000e-01       7.98355e-09       2.55613e-10       3.03975e-16       3.82200e-11       5.30512e-01       4.88339e-02       5.30512e-01      
 2.07000e-01       1.05475e-08       3.38530e-10       3.04965e-16       5.06091e-11       5.30512e-01       4.88431e-02       5.30512e-01      
 2.16000e-01       1.39187e-08       4.48012e-10       3.06251e-16       6.69607e-11       5.30512e-01       4.88553e-02       5.30512e-01      
 2.25000e-01       1.83429e-08       5.92388e-10       3.07880e-16       8.85131e-11       5.30512e-01       4.88713e-02       5.30512e-01      
 2.34000e-01       2.41356e-08       7.82503e-10       3.09900e-16       1.16875e-10       5.30512e-01       4.88924e-02       5.30512e-01      
 2.43000e-01       3.17005e-08       1.03243e-09       3.12366e-16       1.54128e-10       5.30512e-01       4.89201e-02       5.30512e-01      
 2.52000e-01       4.15498e-08       1.36034e-09       3.15333e-16       2.02954e-10       5.30512e-01       4.89565e-02       5.30512e-01      
 2.61000e-01       5.43287e-08       1.78960e-09       3.18858e-16       2.66784e-10       5.30512e-01       4.90040e-02       5.30512e-01      
 2.70000e-01       7.08425e-08       2.35010e-09       3.22996e-16       3.49984e-10       5.30512e-01       4.90659e-02       5.30512e-01      
 2.79000e-01       9.20864e-08       3.07979e-09       3.27803e-16       4.58059e-10       5.30512e-01       4.91464e-02       5.30512e-01      
 2.88000e-01       1.19275e-07       4.02657e-09       3.33327e-16       5.97893e-10       5.30512e-01       4.92504e-02       5.30512e-01      
 2.97000e-01       1.53870e-07       5.25037e-09       3.39611e-16       7.77995e-10       5.30512e-01       4.93844e-02       5.30512e-01      
 3.06000e-01       1.97607e-07       6.82549e-09       3.46692e-16       1.00876e-09       5.30512e-01       4.95560e-02       5.30512e-01      
 3.15000e-01       2.52508e-07       8.84314e-09       3.54593e-16       1.30269e-09       5.30512e-01       4.97744e-02       5.30512e-01      
 3.24000e-01       3.20883e-07       1.14140e-08       3.63327e-16       1.67458e-09       5.30512e-01       5.00505e-02       5.30512e-01      
 3.33000e-01       4.05319e-07       1.46710e-08       3.72897e-16       2.14164e-09       5.30512e-01       5.03970e-02       5.30512e-01      
 3.42000e-01       5.08638e-07       1.87712e-08       3.83288e-16       2.72339e-09       5.30512e-01       5.08278e-02       5.30512e-01      
 3.51000e-01       6.33841e-07       2.38982e-08       3.94476e-16       3.44147e-09       5.30512e-01       5.13587e-02       5.30512e-01      
 3.60000e-01       7.84024e-07       3.02628e-08       4.06422e-16       4.31922e-09       5.30512e-01       5.20061e-02       5.30512e-01      
 3.69000e-01       9.62273e-07       3.81040e-08       4.19072e-16       5.38105e-09       5.30512e-01       5.27871e-02       5.30512e-01      
 3.78000e-01       1.17155e-06       4.76880e-08       4.32364e-16       6.65157e-09       5.30512e-01       5.37184e-02       5.30512e-01      
 3.87000e-01       1.41460e-06       5.93068e-08       4.46224e-16       8.15473e-09       5.30512e-01       5.48158e-02       5.30512e-01      
 3.96000e-01       1.69383e-06       7.32755e-08       4.60568e-16       9.91283e-09       5.30512e-01       5.60933e-02       5.30512e-01      
 4.05000e-01       2.01128e-06       8.99295e-08       4.75306e-16       1.19457e-08       5.30512e-01       5.75625e-02       5.30512e-01      
 4.14000e-01       2.36863e-06       1.09621e-07       4.90345e-16       1.42702e-08       5.30512e-01       5.92323e-02       5.30512e-01      
 4.23000e-01       2.76725e-06       1.32714e-07       5.05587e-16       1.68998e-08       5.30512e-01       6.11087e-02       5.30512e-01      
 4.32000e-01       3.20834e-06       1.59588e-07       5.20935e-16       1.98448e-08       5.30512e-01       6.31948e-02       5.30512e-01      
 4.41000e-01       3.69306e-06       1.90629e-07       5.36293e-16       2.31124e-08       5.30512e-01       6.54914e-02       5.30512e-01      
 4.50000e-01       4.22269e-06       2.26236e-07       5.51570e-16       2.67078e-08       5.30512e-01       6.79971e-02       5.30512e-01      
 4.59000e-01       4.79876e-06       2.66819e-07       5.66680e-16       3.06345e-08       5.30512e-01       7.07093e-02       5.30512e-01      
 4.68000e-01       5.42310e-06       3.12806e-07       5.81543e-16       3.48950e-08       5.30512e-01       7.36247e-02       5.30512e-01      
 4.77000e-01       6.09785e-06       3.64638e-07       5.96089e-16       3.94918e-08       5.30512e-01       7.67394e-02       5.30512e-01      
 4.86000e-01       6.82535e-06       4.22782e-07       6.10256e-16       4.44271e-08       5.30512e-01       8.00495e-02       5.30512e-01      
 4.95000e-01       7.60804e-06       4.87722e-07       6.23991e-16       4.97037e-08       5.30512e-01       8.35515e-02       5.30512e-01      
 5.04000e-01       8.44830e-06       5.59966e-07       6.37250e-16       5.53249e-08       5.30512e-01       8.72418e-02       5.30512e-01      
 5.13000e-01       9.34828e-06       6.40042e-07       6.49999e-16       6.12942e-08       5.30512e-01       9.11170e-02       5.30512e-01      
 5.22000e-01       1.03097e-05       7.28496e-07       6.62214e-16       6.76153e-08       5.30512e-01       9.51738e-02       5.30512e-01      
 5.31000e-01       1.13337e-05       8.25886e-07       6.73877e-16       7.42921e-08       5.30512e-01       9.94089e-02       5.30512e-01      
 5.40000e-01       1.24209e-05       9.32779e-07       6.84979e-16       8.13279e-08       5.30512e-01       1.03819e-01       5.30512e-01      
 5.49000e-01       1.35710e-05       1.04974e-06       6.95518e-16       8.87256e-08       5.30512e-01       1.08399e-01       5.30512e-01      
 5.58000e-01       1.47830e-05       1.17734e-06       7.05496e-16       9.64874e-08       5.30512e-01       1.13146e-01       5.30512e-01      
 5.67000e-01       1.60552e-05       1.31612e-06       7.14924e-16       1.04615e-07       5.30512e-01       1.18054e-01       5.30512e-01      
 5.76000e-01       1.73850e-05       1.46661e-06       7.23812e-16       1.13107e-07       5.30512e-01       1.23117e-01       5.30512e-01      
 5.85000e-01       1.87693e-05       1.62932e-06       7.32178e-16       1.21964e-07       5.30512e-01       1.28330e-01       5.30512e-01      
 5.94000e-01       2.02041e-05       1.80471e-06       7.40040e-16       1.31184e-07       5.30512e-01       1.33685e-01       5.30512e-01      
 6.03000e-01       2.16853e-05       1.99324e-06       7.47419e-16       1.40763e-07       5.30512e-01       1.39176e-01       5.30512e-01      
 6.12000e-01       2.32080e-05       2.19529e-06       7.54337e-16       1.50696e-07       5.30512e-01       1.44795e-01       5.30512e-01      
 6.21000e-01       2.47673e-05       2.41121e-06       7.60817e-16       1.60980e-07       5.30512e-01       1.50534e-01       5.30512e-01      
 6.30000e-01       2.63579e-05       2.64131e-06       7.66884e-16       1.71606e-07       5.30512e-01       1.56384e-01       5.30512e-01      
 6.39000e-01       2.79746e-05       2.88584e-06       7.72560e-16       1.82570e-07       5.30512e-01       1.62338e-01       5.30512e-01      
 6.48000e-01       2.96122e-05       3.14503e-06       7.77869e-16       1.93861e-07       5.30512e-01       1.68387e-01       5.30512e-01      
 6.57000e-01       3.12656e-05       3.41902e-06       7.82834e-16       2.05474e-07       5.30512e-01       1.74523e-01       5.30512e-01      
 6.66000e-01       3.29297e-05       3.70795e-06       7.87477e-16       2.17398e-07       5.30512e-01       1.80737e-01       5.30512e-01      
 6.75000e-01       3.46001e-05       4.01189e-06       7.91820e-16       2.29626e-07       5.30512e-01       1.87022e-01       5.30512e-01      
 6.84000e-01       3.62722e-05       4.33087e-06       7.95883e-16       2.42148e-07       5.30512e-01       1.93370e-01       5.30512e-01      
 6.93000e-01       3.79420e-05       4.66488e-06       7.99685e-16       2.54955e-07       5.30512e-01       1.99772e-01       5.30512e-01      
 7.02000e-01       3.96059e-05       5.01390e-06       8.03246e-16       2.68038e-07       5.30512e-01       2.06224e-01       5.30512e-01      
 7.11000e-01       4.12604e-05       5.37786e-06       8.06583e-16       2.81388e-07       5.30512e-01       2.12717e-01       5.30512e-01      
 7.20000e-01       4.29026e-05       5.75664e-06       8.09711e-16       2.94997e-07       5.30512e-01       2.19245e-01       5.30512e-01      
 7.29000e-01       4.45299e-05       6.15014e-06       8.12647e-16       3.08855e-07       5.30512e-01       2.25802e-01       5.30512e-01      
 7.38000e-01       4.61400e-05       6.55821e-06       8.15405e-16       3.22956e-07       5.30512e-01       2.32383e-01       5.30512e-01      
 7.47000e-01       4.77308e-05       6.98068e-06       8.17997e-16       3.37290e-07       5.30512e-01       2.38984e-01       5.30512e-01      
 7.56000e-01       4.93007e-05       7.41737e-06       8.20437e-16       3.51850e-07       5.30512e-01       2.45598e-01       5.30512e-01      
 7.65000e-01       5.08483e-05       7.86809e-06       8.22737e-16       3.66629e-07       5.30512e-01       2.52222e-01       5.30512e-01      
 7.74000e-01       5.23725e-05       8.33263e-06       8.24905e-16       3.81620e-07       5.30512e-01       2.58851e-01       5.30512e-01      
 7.83000e-01       5.38722e-05       8.81078e-06       8.26953e-16       3.96816e-07       5.30512e-01       2.65484e-01       5.30512e-01      
 7.92000e-01       5.53468e-05       9.30230e-06       8.28890e-16       4.12212e-07       5.30512e-01       2.72115e-01       5.30512e-01      
 8.01000e-01       5.67957e-05       9.80698e-06       8.30724e-16       4.27801e-07       5.30512e-01       2.78742e-01       5.30512e-01      
 8.10000e-01       5.82186e-05       1.03246e-05       8.32462e-16       4.43578e-07       5.30512e-01       2.85362e-01       5.30512e-01      
 8.19000e-01       5.96151e-05       1.08549e-05       8.34112e-16       4.59538e-07       5.30512e-01       2.91974e-01       5.30512e-01      
 8.28000e-01       6.09852e-05       1.13976e-05       8.35681e-16       4.75677e-07       5.30512e-01       2.98575e-01       5.30512e-01      
 8.37000e-01       6.23288e-05       1.19525e-05       8.37174e-16       4.91989e-07       5.30512e-01       3.05162e-01       5.30512e-01      
 8.46000e-01       6.36459e-05       1.25195e-05       8.38597e-16       5.08471e-07       5.30512e-01       3.11736e-01       5.30512e-01      
 8.55000e-01       6.49367e-05       1.30981e-05       8.39955e-16       5.25119e-07       5.30512e-01       3.18293e-01       5.30512e-01      
 8.64000e-01       6.62014e-05       1.36882e-05       8.41253e-16       5.41929e-07       5.30512e-01       3.24833e-01       5.30512e-01      
 8.73000e-01       6.74402e-05       1.42896e-05       8.42496e-16       5.58899e-07       5.30512e-01       3.31355e-01       5.30512e-01      
 8.82000e-01       6.86533e-05       1.49021e-05       8.43686e-16       5.76024e-07       5.30512e-01       3.37858e-01       5.30512e-01      
 8.91000e-01       6.98411e-05       1.55253e-05       8.44829e-16       5.93303e-07       5.30512e-01       3.44340e-01       5.30512e-01      
 9.00000e-01       7.10040e-05       1.61591e-05       8.45926e-16       6.10733e-07       5.30512e-01       3.50802e-01       5.30512e-01      
 9.09000e-01       7.21422e-05       1.68033e-05       8.46982e-16       6.28312e-07       5.30512e-01       3.57243e-01       5.30512e-01      
 9.18000e-01       7.32561e-05       1.74576e-05       8.47999e-16       6.46037e-07       5.30512e-01       3.63662e-01       5.30512e-01      
 9.27000e-01       7.43461e-05       1.81218e-05       8.48979e-16       6.63907e-07       5.30512e-01       3.70059e-01       5.30512e-01      
 9.36000e-01       7.54125e-05       1.87957e-05       8.49926e-16       6.81920e-07       5.30512e-01       3.76434e-01       5.30512e-01      
 9.45000e-01       7.64558e-05       1.94791e-05       8.50841e-16       7.00074e-07       5.30512e-01       3.82787e-01       5.30512e-01      
 9.54000e-01       7.74764e-05       2.01718e-05       8.51727e-16       7.18368e-07       5.30512e-01       3.89116e-01       5.30512e-01      
 9.63000e-01       7.84745e-05       2.08736e-05       8.52585e-16       7.36801e-07       5.30512e-01       3.95424e-01       5.30512e-01      
 9.72000e-01       7.94506e-05       2.15842e-05       8.53417e-16       7.55372e-07       5.30512e-01       4.01708e-01       5.30512e-01      
 9.81000e-01       8.04050e-05       2.23036e-05       8.54225e-16       7.74080e-07       5.30512e-01       4.07970e-01       5.30512e-01      
 9.90000e-01       8.13381e-05       2.30314e-05       8.55010e-16       7.92924e-07       5.30512e-01       4.14210e-01       5.30512e-01      
 9.99000e-01       8.22503e-05       2.37676e-05       8.55773e-16       8.11904e-07       5.30512e-01       4.20427e-01       5.30512e-01      
 1.00800e+00       8.31418e-05       2.45118e-05       8.56517e-16       8.31019e-07       5.30512e-01       4.26622e-01       5.30512e-01      
 1.01700e+00       8.40131e-05       2.52640e-05       8.57241e-16       8.50268e-07       5.30512e-01       4.32795e-01       5.30512e-01      
 1.02600e+00       8.48645e-05       2.60239e-05       8.57948e-16       8.69651e-07       5.30512e-01       4.38947e-01       5.30512e-01      
 1.03500e+00       8.56962e-05       2.67914e-05       8.58638e-16       8.89169e-07       5.30512e-01       4.45077e-01       5.30512e-01      
 1.04400e+00       8.65086e-05       2.75663e-05       8.59312e-16       9.08820e-07       5.30512e-01       4.51185e-01       5.30512e-01      
 1.05300e+00       8.73021e-05       2.83485e-05       8.59971e-16       9.28605e-07       5.30512e-01       4.57273e-01       5.30512e-01      
 1.06200e+00       8.80768e-05       2.91377e-05       8.60616e-16       9.48525e-07       5.30512e-01       4.63340e-01       5.30512e-01      
 1.07100e+00       8.88332e-05       2.99337e-05       8.61248e-16       9.68578e-07       5.30512e-01       4.69387e-01       5.30512e-01      
 1.08000e+00       8.95715e-05       3.07365e-05       8.61867e-16       9.88767e-07       5.30512e-01       4.75414e-01       5.30512e-01      
 1.08900e+00       9.02919e-05       3.15459e-05       8.62474e-16       1.00909e-06       5.30512e-01       4.81422e-01       5.30512e-01      
 1.09800e+00       9.09947e-05       3.23617e-05       8.63069e-16       1.02955e-06       5.30512e-01       4.87410e-01       5.30512e-01      
 1.10700e+00       9.16803e-05       3.31837e-05       8.63654e-16       1.05014e-06       5.30512e-01       4.93379e-01       5.30512e-01      
 1.11600e+00       9.23488e-05       3.40118e-05       8.64229e-16       1.07087e-06       5.30512e-01       4.99330e-01       5.30512e-01      
 1.12500e+00       9.30005e-05       3.48459e-05       8.64794e-16       1.09174e-06       5.30512e-01       5.05262e-01       5.30512e-01      
 1.13400e+00       9.36357e-05       3.56857e-05       8.65350e-16       1.11275e-06       5.30512e-01       5.11177e-01       5.30512e-01      
 1.14300e+00       9.42546e-05       3.65312e-05       8.65898e-16       1.13389e-06       5.30512e-01       5.17075e-01       5.30512e-01      
 1.15200e+00       9.48574e-05       3.73822e-05       8.66437e-16       1.15517e-06       5.30512e-01       5.22955e-01       5.30512e-01      
 1.16100e+00       9.54444e-05       3.82385e-05       8.66968e-16       1.17660e-06       5.30512e-01       5.28819e-01       5.30512e-01      
 1.17000e+00       9.60158e-05       3.91001e-05       8.67492e-16       1.19816e-06       5.30512e-01       5.34667e-01       5.30512e-01      
 1.17900e+00       9.65718e-05       3.99667e-05       8.68009e-16       1.21987e-06       5.30512e-01       5.40499e-01       5.30512e-01      
 1.18800e+00       9.71127e-05       4.08382e-05       8.68519e-16       1.24172e-06       5.30512e-01       5.46316e-01       5.30512e-01      
 1.19700e+00       9.76387e-05       4.17146e-05       8.69023e-16       1.26372e-06       5.30512e-01       5.52117e-01       5.30512e-01      
 1.20600e+00       9.81499e-05       4.25956e-05       8.69521e-16       1.28586e-06       5.30512e-01       5.57904e-01       5.30512e-01      
 1.21500e+00       9.86466e-05       4.34812e-05       8.70014e-16       1.30816e-06       5.30512e-01       5.63676e-01       5.30512e-01      
