
dc (V)            getData("M0:gm    getData("M0:id    getData("M0:cg    getData("M0:gd    getData("M0:vt    getData("M0:vd    getData("M0:vt

 0.00000e+00       7.09876e-12       2.40273e-13       6.17997e-16       3.01012e-14       5.03085e-01       4.31808e-02       5.03085e-01      
 9.00000e-03       9.47419e-12       3.13486e-13       6.15976e-16       4.01780e-14       5.03085e-01       4.31809e-02       5.03085e-01      
 1.80000e-02       1.26439e-11       4.11589e-13       6.14028e-16       5.36264e-14       5.03085e-01       4.31809e-02       5.03085e-01      
 2.70000e-02       1.68731e-11       5.42862e-13       6.12158e-16       7.15735e-14       5.03085e-01       4.31809e-02       5.03085e-01      
 3.60000e-02       2.25155e-11       7.18354e-13       6.10369e-16       9.55230e-14       5.03085e-01       4.31810e-02       5.03085e-01      
 4.50000e-02       3.00424e-11       9.52803e-13       6.08667e-16       1.27480e-13       5.03085e-01       4.31811e-02       5.03085e-01      
 5.40000e-02       4.00821e-11       1.26586e-12       6.07059e-16       1.70118e-13       5.03085e-01       4.31812e-02       5.03085e-01      
 6.30000e-02       5.34715e-11       1.68375e-12       6.05556e-16       2.27002e-13       5.03085e-01       4.31813e-02       5.03085e-01      
 7.20000e-02       7.13252e-11       2.24139e-12       6.04168e-16       3.02882e-13       5.03085e-01       4.31815e-02       5.03085e-01      
 8.10000e-02       9.51271e-11       2.98534e-12       6.02910e-16       4.04091e-13       5.03085e-01       4.31818e-02       5.03085e-01      
 9.00000e-02       1.26852e-10       3.97763e-12       6.01802e-16       5.39062e-13       5.03085e-01       4.31821e-02       5.03085e-01      
 9.90000e-02       1.69124e-10       5.30085e-12       6.00864e-16       7.19025e-13       5.03085e-01       4.31825e-02       5.03085e-01      
 1.08000e-01       2.25435e-10       7.06495e-12       6.00125e-16       9.58929e-13       5.03085e-01       4.31831e-02       5.03085e-01      
 1.17000e-01       3.00418e-10       9.41622e-12       5.99616e-16       1.27866e-12       5.03085e-01       4.31839e-02       5.03085e-01      
 1.26000e-01       4.00200e-10       1.25491e-11       5.99356e-16       1.70465e-12       5.03085e-01       4.31850e-02       5.03085e-01      
 1.35000e-01       5.32921e-10       1.67218e-11       5.99409e-16       2.27200e-12       5.03085e-01       4.31864e-02       5.03085e-01      
 1.44000e-01       7.09355e-10       2.22771e-11       5.99837e-16       3.02728e-12       5.03085e-01       4.31883e-02       5.03085e-01      
 1.53000e-01       9.43731e-10       2.96699e-11       6.00706e-16       4.03229e-12       5.03085e-01       4.31908e-02       5.03085e-01      
 1.62000e-01       1.25482e-09       3.95024e-11       6.02094e-16       5.36884e-12       5.03085e-01       4.31941e-02       5.03085e-01      
 1.71000e-01       1.66733e-09       5.25716e-11       6.04090e-16       7.14510e-12       5.03085e-01       4.31985e-02       5.03085e-01      
 1.80000e-01       2.21370e-09       6.99301e-11       6.06797e-16       9.50392e-12       5.03085e-01       4.32043e-02       5.03085e-01      
 1.89000e-01       2.93642e-09       9.29663e-11       6.10331e-16       1.26335e-11       5.03085e-01       4.32121e-02       5.03085e-01      
 1.98000e-01       3.89094e-09       1.23507e-10       6.14821e-16       1.67813e-11       5.03085e-01       4.32224e-02       5.03085e-01      
 2.07000e-01       5.14933e-09       1.63949e-10       6.20408e-16       2.22716e-11       5.03085e-01       4.32360e-02       5.03085e-01      
 2.16000e-01       6.80490e-09       2.17431e-10       6.27244e-16       2.95282e-11       5.03085e-01       4.32540e-02       5.03085e-01      
 2.25000e-01       8.97774e-09       2.88048e-10       6.35487e-16       3.91028e-11       5.03085e-01       4.32777e-02       5.03085e-01      
 2.34000e-01       1.18215e-08       3.81122e-10       6.45301e-16       5.17102e-11       5.03085e-01       4.33090e-02       5.03085e-01      
 2.43000e-01       1.55315e-08       5.03539e-10       6.56851e-16       6.82716e-11       5.03085e-01       4.33501e-02       5.03085e-01      
 2.52000e-01       2.03538e-08       6.64164e-10       6.70291e-16       8.99666e-11       5.03085e-01       4.34038e-02       5.03085e-01      
 2.61000e-01       2.65955e-08       8.74346e-10       6.85769e-16       1.18295e-10       5.03085e-01       4.34741e-02       5.03085e-01      
 2.70000e-01       3.46363e-08       1.14852e-09       7.03412e-16       1.55145e-10       5.03085e-01       4.35654e-02       5.03085e-01      
 2.79000e-01       4.49392e-08       1.50490e-09       7.23324e-16       2.02873e-10       5.03085e-01       4.36836e-02       5.03085e-01      
 2.88000e-01       5.80620e-08       1.96629e-09       7.45580e-16       2.64382e-10       5.03085e-01       4.38360e-02       5.03085e-01      
 2.97000e-01       7.46657e-08       2.56098e-09       7.70223e-16       3.43196e-10       5.03085e-01       4.40312e-02       5.03085e-01      
 3.06000e-01       9.55209e-08       3.32370e-09       7.97256e-16       4.43530e-10       5.03085e-01       4.42795e-02       5.03085e-01      
 3.15000e-01       1.21509e-07       4.29661e-09       8.26648e-16       5.70326e-10       5.03085e-01       4.45932e-02       5.03085e-01      
 3.24000e-01       1.53617e-07       5.53032e-09       8.58325e-16       7.29253e-10       5.03085e-01       4.49861e-02       5.03085e-01      
 3.33000e-01       1.92926e-07       7.08471e-09       8.92174e-16       9.26658e-10       5.03085e-01       4.54736e-02       5.03085e-01      
 3.42000e-01       2.40585e-07       9.02977e-09       9.28044e-16       1.16944e-09       5.03085e-01       4.60727e-02       5.03085e-01      
 3.51000e-01       2.97789e-07       1.14460e-08       9.65752e-16       1.46488e-09       5.03085e-01       4.68007e-02       5.03085e-01      
 3.60000e-01       3.65730e-07       1.44248e-08       1.00508e-15       1.82034e-09       5.03085e-01       4.76752e-02       5.03085e-01      
 3.69000e-01       4.45564e-07       1.80681e-08       1.04579e-15       2.24301e-09       5.03085e-01       4.87133e-02       5.03085e-01      
 3.78000e-01       5.38359e-07       2.24878e-08       1.08762e-15       2.73955e-09       5.03085e-01       4.99302e-02       5.03085e-01      
 3.87000e-01       6.45064e-07       2.78049e-08       1.13029e-15       3.31580e-09       5.03085e-01       5.13392e-02       5.03085e-01      
 3.96000e-01       7.66488e-07       3.41486e-08       1.17352e-15       3.97655e-09       5.03085e-01       5.29504e-02       5.03085e-01      
 4.05000e-01       9.03300e-07       4.16543e-08       1.21703e-15       4.72545e-09       5.03085e-01       5.47711e-02       5.03085e-01      
 4.14000e-01       1.05605e-06       5.04632e-08       1.26055e-15       5.56494e-09       5.03085e-01       5.68053e-02       5.03085e-01      
 4.23000e-01       1.22523e-06       6.07211e-08       1.30380e-15       6.49638e-09       5.03085e-01       5.90543e-02       5.03085e-01      
 4.32000e-01       1.41130e-06       7.25778e-08       1.34654e-15       7.52026e-09       5.03085e-01       6.15170e-02       5.03085e-01      
 4.41000e-01       1.61478e-06       8.61877e-08       1.38854e-15       8.63639e-09       5.03085e-01       6.41904e-02       5.03085e-01      
 4.50000e-01       1.83625e-06       1.01710e-07       1.42960e-15       9.84421e-09       5.03085e-01       6.70709e-02       5.03085e-01      
 4.59000e-01       2.07640e-06       1.19310e-07       1.46955e-15       1.11429e-08       5.03085e-01       7.01538e-02       5.03085e-01      
 4.68000e-01       2.33601e-06       1.39158e-07       1.50823e-15       1.25318e-08       5.03085e-01       7.34346e-02       5.03085e-01      
 4.77000e-01       2.61592e-06       1.61435e-07       1.54552e-15       1.40102e-08       5.03085e-01       7.69090e-02       5.03085e-01      
 4.86000e-01       2.91697e-06       1.86326e-07       1.58132e-15       1.55775e-08       5.03085e-01       8.05730e-02       5.03085e-01      
 4.95000e-01       3.23997e-06       2.14026e-07       1.61558e-15       1.72335e-08       5.03085e-01       8.44226e-02       5.03085e-01      
 5.04000e-01       3.58562e-06       2.44734e-07       1.64825e-15       1.89779e-08       5.03085e-01       8.84544e-02       5.03085e-01      
 5.13000e-01       3.95446e-06       2.78658e-07       1.67930e-15       2.08106e-08       5.03085e-01       9.26650e-02       5.03085e-01      
 5.22000e-01       4.34683e-06       3.16008e-07       1.70873e-15       2.27315e-08       5.03085e-01       9.70509e-02       5.03085e-01      
 5.31000e-01       4.76285e-06       3.56997e-07       1.73656e-15       2.47406e-08       5.03085e-01       1.01609e-01       5.03085e-01      
 5.40000e-01       5.20240e-06       4.01836e-07       1.76281e-15       2.68375e-08       5.03085e-01       1.06334e-01       5.03085e-01      
 5.49000e-01       5.66509e-06       4.50737e-07       1.78752e-15       2.90221e-08       5.03085e-01       1.11224e-01       5.03085e-01      
 5.58000e-01       6.15032e-06       5.03904e-07       1.81074e-15       3.12936e-08       5.03085e-01       1.16272e-01       5.03085e-01      
 5.67000e-01       6.65723e-06       5.61537e-07       1.83254e-15       3.36516e-08       5.03085e-01       1.21475e-01       5.03085e-01      
 5.76000e-01       7.18479e-06       6.23826e-07       1.85296e-15       3.60950e-08       5.03085e-01       1.26827e-01       5.03085e-01      
 5.85000e-01       7.73177e-06       6.90952e-07       1.87209e-15       3.86227e-08       5.03085e-01       1.32321e-01       5.03085e-01      
 5.94000e-01       8.29683e-06       7.63084e-07       1.88997e-15       4.12336e-08       5.03085e-01       1.37952e-01       5.03085e-01      
 6.03000e-01       8.87850e-06       8.40377e-07       1.90670e-15       4.39262e-08       5.03085e-01       1.43714e-01       5.03085e-01      
 6.12000e-01       9.47525e-06       9.22974e-07       1.92232e-15       4.66988e-08       5.03085e-01       1.49599e-01       5.03085e-01      
 6.21000e-01       1.00855e-05       1.01100e-06       1.93691e-15       4.95499e-08       5.03085e-01       1.55601e-01       5.03085e-01      
 6.30000e-01       1.07078e-05       1.10458e-06       1.95055e-15       5.24776e-08       5.03085e-01       1.61714e-01       5.03085e-01      
 6.39000e-01       1.13404e-05       1.20381e-06       1.96328e-15       5.54802e-08       5.03085e-01       1.67930e-01       5.03085e-01      
 6.48000e-01       1.19819e-05       1.30877e-06       1.97517e-15       5.85556e-08       5.03085e-01       1.74242e-01       5.03085e-01      
 6.57000e-01       1.26308e-05       1.41953e-06       1.98628e-15       6.17021e-08       5.03085e-01       1.80645e-01       5.03085e-01      
 6.66000e-01       1.32858e-05       1.53617e-06       1.99667e-15       6.49177e-08       5.03085e-01       1.87132e-01       5.03085e-01      
 6.75000e-01       1.39455e-05       1.65872e-06       2.00638e-15       6.82006e-08       5.03085e-01       1.93696e-01       5.03085e-01      
 6.84000e-01       1.46087e-05       1.78723e-06       2.01548e-15       7.15491e-08       5.03085e-01       2.00332e-01       5.03085e-01      
 6.93000e-01       1.52744e-05       1.92171e-06       2.02399e-15       7.49612e-08       5.03085e-01       2.07035e-01       5.03085e-01      
 7.02000e-01       1.59415e-05       2.06220e-06       2.03197e-15       7.84354e-08       5.03085e-01       2.13798e-01       5.03085e-01      
 7.11000e-01       1.66090e-05       2.20869e-06       2.03946e-15       8.19700e-08       5.03085e-01       2.20617e-01       5.03085e-01      
 7.20000e-01       1.72763e-05       2.36118e-06       2.04650e-15       8.55634e-08       5.03085e-01       2.27487e-01       5.03085e-01      
 7.29000e-01       1.79424e-05       2.51968e-06       2.05311e-15       8.92144e-08       5.03085e-01       2.34404e-01       5.03085e-01      
 7.38000e-01       1.86068e-05       2.68416e-06       2.05933e-15       9.29214e-08       5.03085e-01       2.41364e-01       5.03085e-01      
 7.47000e-01       1.92688e-05       2.85461e-06       2.06520e-15       9.66833e-08       5.03085e-01       2.48362e-01       5.03085e-01      
 7.56000e-01       1.99280e-05       3.03101e-06       2.07073e-15       1.00499e-07       5.03085e-01       2.55395e-01       5.03085e-01      
 7.65000e-01       2.05838e-05       3.21332e-06       2.07595e-15       1.04367e-07       5.03085e-01       2.62461e-01       5.03085e-01      
 7.74000e-01       2.12360e-05       3.40152e-06       2.08089e-15       1.08287e-07       5.03085e-01       2.69555e-01       5.03085e-01      
 7.83000e-01       2.18841e-05       3.59556e-06       2.08557e-15       1.12257e-07       5.03085e-01       2.76676e-01       5.03085e-01      
 7.92000e-01       2.25279e-05       3.79543e-06       2.09001e-15       1.16278e-07       5.03085e-01       2.83821e-01       5.03085e-01      
 8.01000e-01       2.31671e-05       4.00106e-06       2.09422e-15       1.20347e-07       5.03085e-01       2.90987e-01       5.03085e-01      
 8.10000e-01       2.38016e-05       4.21243e-06       2.09823e-15       1.24466e-07       5.03085e-01       2.98172e-01       5.03085e-01      
 8.19000e-01       2.44310e-05       4.42948e-06       2.10204e-15       1.28632e-07       5.03085e-01       3.05375e-01       5.03085e-01      
 8.28000e-01       2.50553e-05       4.65217e-06       2.10567e-15       1.32845e-07       5.03085e-01       3.12593e-01       5.03085e-01      
 8.37000e-01       2.56743e-05       4.88046e-06       2.10914e-15       1.37106e-07       5.03085e-01       3.19826e-01       5.03085e-01      
 8.46000e-01       2.62879e-05       5.11429e-06       2.11246e-15       1.41414e-07       5.03085e-01       3.27072e-01       5.03085e-01      
 8.55000e-01       2.68961e-05       5.35362e-06       2.11563e-15       1.45767e-07       5.03085e-01       3.34329e-01       5.03085e-01      
 8.64000e-01       2.74987e-05       5.59840e-06       2.11867e-15       1.50167e-07       5.03085e-01       3.41596e-01       5.03085e-01      
 8.73000e-01       2.80956e-05       5.84857e-06       2.12159e-15       1.54613e-07       5.03085e-01       3.48873e-01       5.03085e-01      
 8.82000e-01       2.86869e-05       6.10410e-06       2.12439e-15       1.59105e-07       5.03085e-01       3.56158e-01       5.03085e-01      
 8.91000e-01       2.92725e-05       6.36491e-06       2.12708e-15       1.63643e-07       5.03085e-01       3.63450e-01       5.03085e-01      
 9.00000e-01       2.98522e-05       6.63097e-06       2.12968e-15       1.68226e-07       5.03085e-01       3.70750e-01       5.03085e-01      
 9.09000e-01       3.04262e-05       6.90222e-06       2.13218e-15       1.72855e-07       5.03085e-01       3.78056e-01       5.03085e-01      
 9.18000e-01       3.09944e-05       7.17861e-06       2.13459e-15       1.77530e-07       5.03085e-01       3.85367e-01       5.03085e-01      
 9.27000e-01       3.15566e-05       7.46009e-06       2.13692e-15       1.82251e-07       5.03085e-01       3.92684e-01       5.03085e-01      
 9.36000e-01       3.21130e-05       7.74660e-06       2.13917e-15       1.87018e-07       5.03085e-01       4.00005e-01       5.03085e-01      
 9.45000e-01       3.26635e-05       8.03809e-06       2.14136e-15       1.91831e-07       5.03085e-01       4.07330e-01       5.03085e-01      
 9.54000e-01       3.32081e-05       8.33451e-06       2.14347e-15       1.96691e-07       5.03085e-01       4.14660e-01       5.03085e-01      
 9.63000e-01       3.37467e-05       8.63580e-06       2.14552e-15       2.01598e-07       5.03085e-01       4.21993e-01       5.03085e-01      
 9.72000e-01       3.42794e-05       8.94192e-06       2.14751e-15       2.06552e-07       5.03085e-01       4.29330e-01       5.03085e-01      
 9.81000e-01       3.48061e-05       9.25279e-06       2.14944e-15       2.11553e-07       5.03085e-01       4.36670e-01       5.03085e-01      
 9.90000e-01       3.53267e-05       9.56839e-06       2.15132e-15       2.16603e-07       5.03085e-01       4.44013e-01       5.03085e-01      
 9.99000e-01       3.58414e-05       9.88864e-06       2.15315e-15       2.21700e-07       5.03085e-01       4.51359e-01       5.03085e-01      
 1.00800e+00       3.63501e-05       1.02135e-05       2.15493e-15       2.26847e-07       5.03085e-01       4.58708e-01       5.03085e-01      
 1.01700e+00       3.68528e-05       1.05429e-05       2.15667e-15       2.32042e-07       5.03085e-01       4.66059e-01       5.03085e-01      
 1.02600e+00       3.73494e-05       1.08768e-05       2.15836e-15       2.37287e-07       5.03085e-01       4.73414e-01       5.03085e-01      
 1.03500e+00       3.78399e-05       1.12151e-05       2.16001e-15       2.42583e-07       5.03085e-01       4.80771e-01       5.03085e-01      
 1.04400e+00       3.83244e-05       1.15579e-05       2.16163e-15       2.47929e-07       5.03085e-01       4.88131e-01       5.03085e-01      
 1.05300e+00       3.88028e-05       1.19049e-05       2.16320e-15       2.53326e-07       5.03085e-01       4.95493e-01       5.03085e-01      
 1.06200e+00       3.92751e-05       1.22563e-05       2.16474e-15       2.58776e-07       5.03085e-01       5.02859e-01       5.03085e-01      
 1.07100e+00       3.97413e-05       1.26119e-05       2.16625e-15       2.64279e-07       5.03085e-01       5.10227e-01       5.03085e-01      
 1.08000e+00       4.02014e-05       1.29716e-05       2.16773e-15       2.69835e-07       5.03085e-01       5.17598e-01       5.03085e-01      
 1.08900e+00       4.06554e-05       1.33354e-05       2.16918e-15       2.75445e-07       5.03085e-01       5.24972e-01       5.03085e-01      
 1.09800e+00       4.11032e-05       1.37034e-05       2.17059e-15       2.81110e-07       5.03085e-01       5.32348e-01       5.03085e-01      
 1.10700e+00       4.15449e-05       1.40753e-05       2.17198e-15       2.86831e-07       5.03085e-01       5.39728e-01       5.03085e-01      
 1.11600e+00       4.19805e-05       1.44511e-05       2.17335e-15       2.92608e-07       5.03085e-01       5.47111e-01       5.03085e-01      
 1.12500e+00       4.24099e-05       1.48309e-05       2.17468e-15       2.98443e-07       5.03085e-01       5.54498e-01       5.03085e-01      
 1.13400e+00       4.28332e-05       1.52145e-05       2.17600e-15       3.04336e-07       5.03085e-01       5.61888e-01       5.03085e-01      
 1.14300e+00       4.32503e-05       1.56018e-05       2.17729e-15       3.10289e-07       5.03085e-01       5.69281e-01       5.03085e-01      
 1.15200e+00       4.36612e-05       1.59929e-05       2.17855e-15       3.16301e-07       5.03085e-01       5.76678e-01       5.03085e-01      
 1.16100e+00       4.40659e-05       1.63877e-05       2.17980e-15       3.22376e-07       5.03085e-01       5.84078e-01       5.03085e-01      
 1.17000e+00       4.44645e-05       1.67861e-05       2.18103e-15       3.28512e-07       5.03085e-01       5.91483e-01       5.03085e-01      
 1.17900e+00       4.48570e-05       1.71880e-05       2.18223e-15       3.34712e-07       5.03085e-01       5.98892e-01       5.03085e-01      
 1.18800e+00       4.52432e-05       1.75935e-05       2.18342e-15       3.40977e-07       5.03085e-01       6.06305e-01       5.03085e-01      
 1.19700e+00       4.56233e-05       1.80024e-05       2.18459e-15       3.47307e-07       5.03085e-01       6.13722e-01       5.03085e-01      
 1.20600e+00       4.59972e-05       1.84146e-05       2.18574e-15       3.53704e-07       5.03085e-01       6.21144e-01       5.03085e-01      
 1.21500e+00       4.63650e-05       1.88303e-05       2.18687e-15       3.60169e-07       5.03085e-01       6.28570e-01       5.03085e-01      
