
dc (V)            getData("M0:gm    getData("M0:id    getData("M0:cg    getData("M0:gd    getData("M0:vt    getData("M0:vd    getData("M0:vt

 0.00000e+00       8.45884e-13       4.48530e-14       4.17613e-15       6.15631e-16       4.85821e-01       3.92892e-02       4.85821e-01      
 9.00000e-03       1.13442e-12       5.28146e-14       4.15898e-15       8.25728e-16       4.85821e-01       3.92893e-02       4.85821e-01      
 1.80000e-02       1.52128e-12       6.38913e-14       4.14255e-15       1.10748e-15       4.85821e-01       3.92893e-02       4.85821e-01      
 2.70000e-02       2.03993e-12       7.91027e-14       4.12691e-15       1.48530e-15       4.85821e-01       3.92894e-02       4.85821e-01      
 3.60000e-02       2.73519e-12       9.98190e-14       4.11210e-15       1.99191e-15       4.85821e-01       3.92894e-02       4.85821e-01      
 4.50000e-02       3.66706e-12       1.27880e-13       4.09820e-15       2.67115e-15       4.85821e-01       3.92896e-02       4.85821e-01      
 5.40000e-02       4.91588e-12       1.65752e-13       4.08529e-15       3.58175e-15       4.85821e-01       3.92897e-02       4.85821e-01      
 6.30000e-02       6.58914e-12       2.16745e-13       4.07350e-15       4.80237e-15       4.85821e-01       3.92899e-02       4.85821e-01      
 7.20000e-02       8.83063e-12       2.85289e-13       4.06295e-15       6.43833e-15       4.85821e-01       3.92901e-02       4.85821e-01      
 8.10000e-02       1.18326e-11       3.77318e-13       4.05382e-15       8.63058e-15       4.85821e-01       3.92905e-02       4.85821e-01      
 9.00000e-02       1.58517e-11       5.00776e-13       4.04633e-15       1.15677e-14       4.85821e-01       3.92909e-02       4.85821e-01      
 9.90000e-02       2.12310e-11       6.66285e-13       4.04072e-15       1.55020e-14       4.85821e-01       3.92915e-02       4.85821e-01      
 1.08000e-01       2.84277e-11       8.88048e-13       4.03732e-15       2.07704e-14       4.85821e-01       3.92923e-02       4.85821e-01      
 1.17000e-01       3.80514e-11       1.18504e-12       4.03650e-15       2.78232e-14       4.85821e-01       3.92934e-02       4.85821e-01      
 1.26000e-01       5.09119e-11       1.58258e-12       4.03861e-15       3.72613e-14       4.85821e-01       3.92949e-02       4.85821e-01      
 1.35000e-01       6.80846e-11       2.11442e-12       4.04414e-15       4.98850e-14       4.85821e-01       3.92968e-02       4.85821e-01      
 1.44000e-01       9.09995e-11       2.82552e-12       4.05387e-15       6.67605e-14       4.85821e-01       3.92994e-02       4.85821e-01      
 1.53000e-01       1.21549e-10       3.77570e-12       4.06851e-15       8.93056e-14       4.85821e-01       3.93029e-02       4.85821e-01      
 1.62000e-01       1.62232e-10       5.04443e-12       4.08893e-15       1.19403e-13       4.85821e-01       3.93075e-02       4.85821e-01      
 1.71000e-01       2.16342e-10       6.73710e-12       4.11607e-15       1.59548e-13       4.85821e-01       3.93137e-02       4.85821e-01      
 1.80000e-01       2.88207e-10       8.99320e-12       4.15102e-15       2.13040e-13       4.85821e-01       3.93219e-02       4.85821e-01      
 1.89000e-01       3.83487e-10       1.19969e-11       4.19498e-15       2.84232e-13       4.85821e-01       3.93329e-02       4.85821e-01      
 1.98000e-01       5.09562e-10       1.59909e-11       4.24925e-15       3.78846e-13       4.85821e-01       3.93474e-02       4.85821e-01      
 2.07000e-01       6.76001e-10       2.12936e-11       4.31521e-15       5.04381e-13       4.85821e-01       3.93668e-02       4.85821e-01      
 2.16000e-01       8.95145e-10       2.83217e-11       4.39429e-15       6.70619e-13       4.85821e-01       3.93923e-02       4.85821e-01      
 2.25000e-01       1.18280e-09       3.76180e-11       4.48796e-15       8.90258e-13       4.85821e-01       3.94261e-02       4.85821e-01      
 2.34000e-01       1.55907e-09       4.98863e-11       4.59763e-15       1.17968e-12       4.85821e-01       3.94706e-02       4.85821e-01      
 2.43000e-01       2.04929e-09       6.60342e-11       4.72464e-15       1.55988e-12       4.85821e-01       3.95290e-02       4.85821e-01      
 2.52000e-01       2.68511e-09       8.72249e-11       4.87018e-15       2.05754e-12       4.85821e-01       3.96054e-02       4.85821e-01      
 2.61000e-01       3.50558e-09       1.14939e-10       5.03526e-15       2.70625e-12       4.85821e-01       3.97048e-02       4.85821e-01      
 2.70000e-01       4.55840e-09       1.51048e-10       5.22063e-15       3.54780e-12       4.85821e-01       3.98337e-02       4.85821e-01      
 2.79000e-01       5.90096e-09       1.97893e-10       5.42676e-15       4.63358e-12       4.85821e-01       3.99998e-02       4.85821e-01      
 2.88000e-01       7.60139e-09       2.58381e-10       5.65379e-15       6.02579e-12       4.85821e-01       4.02122e-02       4.85821e-01      
 2.97000e-01       9.73920e-09       3.36085e-10       5.90152e-15       7.79846e-12       4.85821e-01       4.04820e-02       4.85821e-01      
 3.06000e-01       1.24057e-08       4.35344e-10       6.16937e-15       1.00380e-11       4.85821e-01       4.08219e-02       4.85821e-01      
 3.15000e-01       1.57035e-08       5.61372e-10       6.45643e-15       1.28431e-11       4.85821e-01       4.12458e-02       4.85821e-01      
 3.24000e-01       1.97459e-08       7.20355e-10       6.76143e-15       1.63237e-11       4.85821e-01       4.17694e-02       4.85821e-01      
 3.33000e-01       2.46545e-08       9.19540e-10       7.08277e-15       2.05988e-11       4.85821e-01       4.24088e-02       4.85821e-01      
 3.42000e-01       3.05570e-08       1.16730e-09       7.41857e-15       2.57936e-11       4.85821e-01       4.31804e-02       4.85821e-01      
 3.51000e-01       3.75827e-08       1.47315e-09       7.76673e-15       3.20353e-11       4.85821e-01       4.41003e-02       4.85821e-01      
 3.60000e-01       4.58589e-08       1.84780e-09       8.12493e-15       3.94484e-11       4.85821e-01       4.51830e-02       4.85821e-01      
 3.69000e-01       5.55066e-08       2.30305e-09       8.49074e-15       4.81504e-11       4.85821e-01       4.64412e-02       4.85821e-01      
 3.78000e-01       6.66368e-08       2.85176e-09       8.86165e-15       5.82474e-11       4.85821e-01       4.78848e-02       4.85821e-01      
 3.87000e-01       7.93498e-08       3.50772e-09       9.23515e-15       6.98315e-11       4.85821e-01       4.95211e-02       4.85821e-01      
 3.96000e-01       9.37355e-08       4.28561e-09       9.60877e-15       8.29792e-11       4.85821e-01       5.13543e-02       4.85821e-01      
 4.05000e-01       1.09877e-07       5.20086e-09       9.98015e-15       9.77516e-11       4.85821e-01       5.33864e-02       4.85821e-01      
 4.14000e-01       1.27856e-07       6.26964e-09       1.03471e-14       1.14196e-10       4.85821e-01       5.56169e-02       4.85821e-01      
 4.23000e-01       1.47757e-07       7.50886e-09       1.07076e-14       1.32350e-10       4.85821e-01       5.80440e-02       4.85821e-01      
 4.32000e-01       1.69672e-07       8.93624e-09       1.10598e-14       1.52242e-10       4.85821e-01       6.06648e-02       4.85821e-01      
 4.41000e-01       1.93702e-07       1.05703e-08       1.14022e-14       1.73896e-10       4.85821e-01       6.34762e-02       4.85821e-01      
 4.50000e-01       2.19957e-07       1.24307e-08       1.17334e-14       1.97334e-10       4.85821e-01       6.64749e-02       4.85821e-01      
 4.59000e-01       2.48554e-07       1.45379e-08       1.20525e-14       2.22577e-10       4.85821e-01       6.96578e-02       4.85821e-01      
 4.68000e-01       2.79610e-07       1.69135e-08       1.23586e-14       2.49648e-10       4.85821e-01       7.30222e-02       4.85821e-01      
 4.77000e-01       3.13241e-07       1.95801e-08       1.26510e-14       2.78567e-10       4.85821e-01       7.65656e-02       4.85821e-01      
 4.86000e-01       3.49547e-07       2.25615e-08       1.29295e-14       3.09359e-10       4.85821e-01       8.02856e-02       4.85821e-01      
 4.95000e-01       3.88616e-07       2.58821e-08       1.31939e-14       3.42044e-10       4.85821e-01       8.41802e-02       4.85821e-01      
 5.04000e-01       4.30513e-07       2.95671e-08       1.34441e-14       3.76642e-10       4.85821e-01       8.82471e-02       4.85821e-01      
 5.13000e-01       4.75278e-07       3.36420e-08       1.36804e-14       4.13171e-10       4.85821e-01       9.24839e-02       4.85821e-01      
 5.22000e-01       5.22923e-07       3.81329e-08       1.39029e-14       4.51644e-10       4.85821e-01       9.68877e-02       4.85821e-01      
 5.31000e-01       5.73435e-07       4.30656e-08       1.41121e-14       4.92071e-10       4.85821e-01       1.01456e-01       4.85821e-01      
 5.40000e-01       6.26769e-07       4.84657e-08       1.43085e-14       5.34456e-10       4.85821e-01       1.06184e-01       4.85821e-01      
 5.49000e-01       6.82857e-07       5.43583e-08       1.44924e-14       5.78797e-10       4.85821e-01       1.11068e-01       4.85821e-01      
 5.58000e-01       7.41605e-07       6.07678e-08       1.46646e-14       6.25090e-10       4.85821e-01       1.16105e-01       4.85821e-01      
 5.67000e-01       8.02897e-07       6.77177e-08       1.48255e-14       6.73322e-10       4.85821e-01       1.21288e-01       4.85821e-01      
 5.76000e-01       8.66602e-07       7.52301e-08       1.49758e-14       7.23479e-10       4.85821e-01       1.26613e-01       4.85821e-01      
 5.85000e-01       9.32574e-07       8.33263e-08       1.51162e-14       7.75539e-10       4.85821e-01       1.32075e-01       4.85821e-01      
 5.94000e-01       1.00066e-06       9.20258e-08       1.52471e-14       8.29480e-10       4.85821e-01       1.37667e-01       4.85821e-01      
 6.03000e-01       1.07069e-06       1.01347e-07       1.53692e-14       8.85275e-10       4.85821e-01       1.43383e-01       4.85821e-01      
 6.12000e-01       1.14250e-06       1.11307e-07       1.54832e-14       9.42895e-10       4.85821e-01       1.49217e-01       4.85821e-01      
 6.21000e-01       1.21593e-06       1.21920e-07       1.55894e-14       1.00231e-09       4.85821e-01       1.55164e-01       4.85821e-01      
 6.30000e-01       1.29081e-06       1.33201e-07       1.56886e-14       1.06348e-09       4.85821e-01       1.61218e-01       4.85821e-01      
 6.39000e-01       1.36699e-06       1.45162e-07       1.57811e-14       1.12639e-09       4.85821e-01       1.67372e-01       4.85821e-01      
 6.48000e-01       1.44432e-06       1.57813e-07       1.58675e-14       1.19099e-09       4.85821e-01       1.73620e-01       4.85821e-01      
 6.57000e-01       1.52264e-06       1.71165e-07       1.59483e-14       1.25725e-09       4.85821e-01       1.79958e-01       4.85821e-01      
 6.66000e-01       1.60184e-06       1.85226e-07       1.60237e-14       1.32515e-09       4.85821e-01       1.86379e-01       4.85821e-01      
 6.75000e-01       1.68177e-06       2.00004e-07       1.60944e-14       1.39465e-09       4.85821e-01       1.92880e-01       4.85821e-01      
 6.84000e-01       1.76233e-06       2.15503e-07       1.61605e-14       1.46572e-09       4.85821e-01       1.99454e-01       4.85821e-01      
 6.93000e-01       1.84341e-06       2.31730e-07       1.62225e-14       1.53834e-09       4.85821e-01       2.06098e-01       4.85821e-01      
 7.02000e-01       1.92492e-06       2.48688e-07       1.62807e-14       1.61247e-09       4.85821e-01       2.12806e-01       4.85821e-01      
 7.11000e-01       2.00676e-06       2.66382e-07       1.63353e-14       1.68810e-09       4.85821e-01       2.19576e-01       4.85821e-01      
 7.20000e-01       2.08886e-06       2.84813e-07       1.63867e-14       1.76520e-09       4.85821e-01       2.26402e-01       4.85821e-01      
 7.29000e-01       2.17115e-06       3.03984e-07       1.64351e-14       1.84375e-09       4.85821e-01       2.33283e-01       4.85821e-01      
 7.38000e-01       2.25357e-06       3.23896e-07       1.64808e-14       1.92374e-09       4.85821e-01       2.40214e-01       4.85821e-01      
 7.47000e-01       2.33605e-06       3.44550e-07       1.65238e-14       2.00514e-09       4.85821e-01       2.47192e-01       4.85821e-01      
 7.56000e-01       2.41856e-06       3.65947e-07       1.65646e-14       2.08794e-09       4.85821e-01       2.54216e-01       4.85821e-01      
 7.65000e-01       2.50104e-06       3.88086e-07       1.66031e-14       2.17214e-09       4.85821e-01       2.61281e-01       4.85821e-01      
 7.74000e-01       2.58346e-06       4.10967e-07       1.66396e-14       2.25771e-09       4.85821e-01       2.68387e-01       4.85821e-01      
 7.83000e-01       2.66579e-06       4.34589e-07       1.66743e-14       2.34465e-09       4.85821e-01       2.75530e-01       4.85821e-01      
 7.92000e-01       2.74798e-06       4.58951e-07       1.67072e-14       2.43295e-09       4.85821e-01       2.82709e-01       4.85821e-01      
 8.01000e-01       2.83003e-06       4.84053e-07       1.67385e-14       2.52262e-09       4.85821e-01       2.89922e-01       4.85821e-01      
 8.10000e-01       2.91189e-06       5.09892e-07       1.67684e-14       2.61363e-09       4.85821e-01       2.97167e-01       4.85821e-01      
 8.19000e-01       2.99355e-06       5.36467e-07       1.67968e-14       2.70600e-09       4.85821e-01       3.04444e-01       4.85821e-01      
 8.28000e-01       3.07499e-06       5.63775e-07       1.68241e-14       2.79972e-09       4.85821e-01       3.11750e-01       4.85821e-01      
 8.37000e-01       3.15620e-06       5.91816e-07       1.68501e-14       2.89480e-09       4.85821e-01       3.19085e-01       4.85821e-01      
 8.46000e-01       3.23715e-06       6.20586e-07       1.68750e-14       2.99122e-09       4.85821e-01       3.26447e-01       4.85821e-01      
 8.55000e-01       3.31783e-06       6.50083e-07       1.68989e-14       3.08901e-09       4.85821e-01       3.33835e-01       4.85821e-01      
 8.64000e-01       3.39823e-06       6.80306e-07       1.69218e-14       3.18816e-09       4.85821e-01       3.41249e-01       4.85821e-01      
 8.73000e-01       3.47834e-06       7.11250e-07       1.69439e-14       3.28868e-09       4.85821e-01       3.48687e-01       4.85821e-01      
 8.82000e-01       3.55814e-06       7.42914e-07       1.69651e-14       3.39058e-09       4.85821e-01       3.56150e-01       4.85821e-01      
 8.91000e-01       3.63762e-06       7.75295e-07       1.69856e-14       3.49387e-09       4.85821e-01       3.63636e-01       4.85821e-01      
 9.00000e-01       3.71677e-06       8.08389e-07       1.70053e-14       3.59855e-09       4.85821e-01       3.71145e-01       4.85821e-01      
 9.09000e-01       3.79558e-06       8.42194e-07       1.70243e-14       3.70464e-09       4.85821e-01       3.78676e-01       4.85821e-01      
 9.18000e-01       3.87405e-06       8.76707e-07       1.70427e-14       3.81216e-09       4.85821e-01       3.86228e-01       4.85821e-01      
 9.27000e-01       3.95215e-06       9.11925e-07       1.70605e-14       3.92110e-09       4.85821e-01       3.93802e-01       4.85821e-01      
 9.36000e-01       4.02988e-06       9.47843e-07       1.70777e-14       4.03150e-09       4.85821e-01       4.01398e-01       4.85821e-01      
 9.45000e-01       4.10724e-06       9.84460e-07       1.70944e-14       4.14336e-09       4.85821e-01       4.09014e-01       4.85821e-01      
 9.54000e-01       4.18421e-06       1.02177e-06       1.71106e-14       4.25670e-09       4.85821e-01       4.16650e-01       4.85821e-01      
 9.63000e-01       4.26077e-06       1.05977e-06       1.71263e-14       4.37155e-09       4.85821e-01       4.24306e-01       4.85821e-01      
 9.72000e-01       4.33693e-06       1.09846e-06       1.71416e-14       4.48791e-09       4.85821e-01       4.31983e-01       4.85821e-01      
 9.81000e-01       4.41267e-06       1.13783e-06       1.71564e-14       4.60581e-09       4.85821e-01       4.39679e-01       4.85821e-01      
 9.90000e-01       4.48799e-06       1.17789e-06       1.71709e-14       4.72527e-09       4.85821e-01       4.47395e-01       4.85821e-01      
 9.99000e-01       4.56286e-06       1.21861e-06       1.71849e-14       4.84631e-09       4.85821e-01       4.55130e-01       4.85821e-01      
 1.00800e+00       4.63729e-06       1.26001e-06       1.71986e-14       4.96895e-09       4.85821e-01       4.62885e-01       4.85821e-01      
 1.01700e+00       4.71127e-06       1.30208e-06       1.72119e-14       5.09323e-09       4.85821e-01       4.70659e-01       4.85821e-01      
 1.02600e+00       4.78478e-06       1.34481e-06       1.72250e-14       5.21916e-09       4.85821e-01       4.78453e-01       4.85821e-01      
 1.03500e+00       4.85781e-06       1.38820e-06       1.72377e-14       5.34678e-09       4.85821e-01       4.86265e-01       4.85821e-01      
 1.04400e+00       4.93036e-06       1.43225e-06       1.72501e-14       5.47610e-09       4.85821e-01       4.94097e-01       4.85821e-01      
 1.05300e+00       5.00242e-06       1.47695e-06       1.72622e-14       5.60717e-09       4.85821e-01       5.01947e-01       4.85821e-01      
 1.06200e+00       5.07397e-06       1.52229e-06       1.72740e-14       5.74001e-09       4.85821e-01       5.09817e-01       4.85821e-01      
 1.07100e+00       5.14501e-06       1.56827e-06       1.72856e-14       5.87464e-09       4.85821e-01       5.17706e-01       4.85821e-01      
 1.08000e+00       5.21553e-06       1.61490e-06       1.72969e-14       6.01112e-09       4.85821e-01       5.25613e-01       4.85821e-01      
 1.08900e+00       5.28551e-06       1.66215e-06       1.73080e-14       6.14946e-09       4.85821e-01       5.33540e-01       4.85821e-01      
 1.09800e+00       5.35496e-06       1.71003e-06       1.73189e-14       6.28971e-09       4.85821e-01       5.41486e-01       4.85821e-01      
 1.10700e+00       5.42386e-06       1.75854e-06       1.73295e-14       6.43191e-09       4.85821e-01       5.49451e-01       4.85821e-01      
 1.11600e+00       5.49220e-06       1.80766e-06       1.73400e-14       6.57608e-09       4.85821e-01       5.57435e-01       4.85821e-01      
 1.12500e+00       5.55997e-06       1.85739e-06       1.73502e-14       6.72229e-09       4.85821e-01       5.65438e-01       4.85821e-01      
 1.13400e+00       5.62717e-06       1.90773e-06       1.73602e-14       6.87055e-09       4.85821e-01       5.73461e-01       4.85821e-01      
 1.14300e+00       5.69379e-06       1.95868e-06       1.73701e-14       7.02093e-09       4.85821e-01       5.81502e-01       4.85821e-01      
 1.15200e+00       5.75982e-06       2.01022e-06       1.73797e-14       7.17346e-09       4.85821e-01       5.89563e-01       4.85821e-01      
 1.16100e+00       5.82524e-06       2.06235e-06       1.73892e-14       7.32820e-09       4.85821e-01       5.97643e-01       4.85821e-01      
 1.17000e+00       5.89006e-06       2.11507e-06       1.73985e-14       7.48519e-09       4.85821e-01       6.05743e-01       4.85821e-01      
 1.17900e+00       5.95426e-06       2.16837e-06       1.74076e-14       7.64449e-09       4.85821e-01       6.13862e-01       4.85821e-01      
 1.18800e+00       6.01785e-06       2.22224e-06       1.74166e-14       7.80614e-09       4.85821e-01       6.22001e-01       4.85821e-01      
 1.19700e+00       6.08080e-06       2.27668e-06       1.74254e-14       7.97022e-09       4.85821e-01       6.30159e-01       4.85821e-01      
 1.20600e+00       6.14312e-06       2.33169e-06       1.74341e-14       8.13676e-09       4.85821e-01       6.38337e-01       4.85821e-01      
 1.21500e+00       6.20479e-06       2.38726e-06       1.74426e-14       8.30584e-09       4.85821e-01       6.46535e-01       4.85821e-01      
