
dc (V)            getData("M0:gm    getData("M0:id    getData("M0:cg    getData("M0:gd    getData("M0:vt    getData("M0:vd    getData("M0:vt

 0.00000e+00       9.98578e-13       4.95488e-14       3.54001e-15       8.41090e-16       4.86488e-01       3.94021e-02       4.86488e-01      
 9.00000e-03       1.33902e-12       5.91076e-14       3.52554e-15       1.12798e-15       4.86488e-01       3.94021e-02       4.86488e-01      
 1.80000e-02       1.79543e-12       7.23244e-14       3.51170e-15       1.51267e-15       4.86488e-01       3.94021e-02       4.86488e-01      
 2.70000e-02       2.40723e-12       9.04031e-14       3.49850e-15       2.02846e-15       4.86488e-01       3.94022e-02       4.86488e-01      
 3.60000e-02       3.22726e-12       1.14961e-13       3.48601e-15       2.71998e-15       4.86488e-01       3.94023e-02       4.86488e-01      
 4.50000e-02       4.32622e-12       1.48168e-13       3.47427e-15       3.64702e-15       4.86488e-01       3.94024e-02       4.86488e-01      
 5.40000e-02       5.79879e-12       1.92934e-13       3.46337e-15       4.88966e-15       4.86488e-01       3.94025e-02       4.86488e-01      
 6.30000e-02       7.77160e-12       2.53159e-13       3.45339e-15       6.55516e-15       4.86488e-01       3.94027e-02       4.86488e-01      
 7.20000e-02       1.04141e-11       3.34067e-13       3.44445e-15       8.78709e-15       4.86488e-01       3.94029e-02       4.86488e-01      
 8.10000e-02       1.39526e-11       4.42652e-13       3.43670e-15       1.17776e-14       4.86488e-01       3.94033e-02       4.86488e-01      
 9.00000e-02       1.86896e-11       5.88273e-13       3.43031e-15       1.57838e-14       4.86488e-01       3.94037e-02       4.86488e-01      
 9.90000e-02       2.50290e-11       7.83447e-13       3.42549e-15       2.11493e-14       4.86488e-01       3.94043e-02       4.86488e-01      
 1.08000e-01       3.35093e-11       1.04491e-12       3.42251e-15       2.83336e-14       4.86488e-01       3.94051e-02       4.86488e-01      
 1.17000e-01       4.48482e-11       1.39500e-12       3.42168e-15       3.79501e-14       4.86488e-01       3.94062e-02       4.86488e-01      
 1.26000e-01       5.99994e-11       1.86356e-12       3.42329e-15       5.08175e-14       4.86488e-01       3.94076e-02       4.86488e-01      
 1.35000e-01       8.02291e-11       2.49032e-12       3.42775e-15       6.80262e-14       4.86488e-01       3.94095e-02       4.86488e-01      
 1.44000e-01       1.07221e-10       3.32825e-12       3.43570e-15       9.10287e-14       4.86488e-01       3.94121e-02       4.86488e-01      
 1.53000e-01       1.43203e-10       4.44778e-12       3.44775e-15       1.21757e-13       4.86488e-01       3.94155e-02       4.86488e-01      
 1.62000e-01       1.91119e-10       5.94250e-12       3.46461e-15       1.62774e-13       4.86488e-01       3.94201e-02       4.86488e-01      
 1.71000e-01       2.54845e-10       7.93650e-12       3.48707e-15       2.17481e-13       4.86488e-01       3.94261e-02       4.86488e-01      
 1.80000e-01       3.39478e-10       1.05941e-11       3.51605e-15       2.90372e-13       4.86488e-01       3.94343e-02       4.86488e-01      
 1.89000e-01       4.51686e-10       1.41321e-11       3.55254e-15       3.87375e-13       4.86488e-01       3.94450e-02       4.86488e-01      
 1.98000e-01       6.00161e-10       1.88363e-11       3.59763e-15       5.16288e-13       4.86488e-01       3.94594e-02       4.86488e-01      
 2.07000e-01       7.96177e-10       2.50817e-11       3.65248e-15       6.87327e-13       4.86488e-01       3.94784e-02       4.86488e-01      
 2.16000e-01       1.05428e-09       3.33592e-11       3.71831e-15       9.13823e-13       4.86488e-01       3.95036e-02       4.86488e-01      
 2.25000e-01       1.39310e-09       4.43083e-11       3.79632e-15       1.21308e-12       4.86488e-01       3.95368e-02       4.86488e-01      
 2.34000e-01       1.83634e-09       5.87581e-11       3.88772e-15       1.60744e-12       4.86488e-01       3.95806e-02       4.86488e-01      
 2.43000e-01       2.41390e-09       7.77785e-11       3.99364e-15       2.12552e-12       4.86488e-01       3.96381e-02       4.86488e-01      
 2.52000e-01       3.16313e-09       1.02741e-10       4.11510e-15       2.80372e-12       4.86488e-01       3.97134e-02       4.86488e-01      
 2.61000e-01       4.13016e-09       1.35391e-10       4.25295e-15       3.68787e-12       4.86488e-01       3.98114e-02       4.86488e-01      
 2.70000e-01       5.37134e-09       1.77936e-10       4.40784e-15       4.83506e-12       4.86488e-01       3.99384e-02       4.86488e-01      
 2.79000e-01       6.95456e-09       2.33140e-10       4.58018e-15       6.31546e-12       4.86488e-01       4.01020e-02       4.86488e-01      
 2.88000e-01       8.96040e-09       3.04437e-10       4.77012e-15       8.21408e-12       4.86488e-01       4.03115e-02       4.86488e-01      
 2.97000e-01       1.14830e-08       3.96043e-10       4.97749e-15       1.06322e-11       4.86488e-01       4.05777e-02       4.86488e-01      
 3.06000e-01       1.46306e-08       5.13090e-10       5.20185e-15       1.36881e-11       4.86488e-01       4.09132e-02       4.86488e-01      
 3.15000e-01       1.85250e-08       6.61743e-10       5.44243e-15       1.75168e-11       4.86488e-01       4.13319e-02       4.86488e-01      
 3.24000e-01       2.33004e-08       8.49319e-10       5.69819e-15       2.22690e-11       4.86488e-01       4.18494e-02       4.86488e-01      
 3.33000e-01       2.91015e-08       1.08440e-09       5.96781e-15       2.81078e-11       4.86488e-01       4.24818e-02       4.86488e-01      
 3.42000e-01       3.60800e-08       1.37689e-09       6.24973e-15       3.52049e-11       4.86488e-01       4.32457e-02       4.86488e-01      
 3.51000e-01       4.43899e-08       1.73809e-09       6.54217e-15       4.37344e-11       4.86488e-01       4.41570e-02       4.86488e-01      
 3.60000e-01       5.41831e-08       2.18068e-09       6.84322e-15       5.38671e-11       4.86488e-01       4.52306e-02       4.86488e-01      
 3.69000e-01       6.56037e-08       2.71866e-09       7.15082e-15       6.57634e-11       4.86488e-01       4.64793e-02       4.86488e-01      
 3.78000e-01       7.87844e-08       3.36729e-09       7.46287e-15       7.95682e-11       4.86488e-01       4.79132e-02       4.86488e-01      
 3.87000e-01       9.38447e-08       4.14296e-09       7.77726e-15       9.54064e-11       4.86488e-01       4.95399e-02       4.86488e-01      
 3.96000e-01       1.10892e-07       5.06310e-09       8.09190e-15       1.13381e-10       4.86488e-01       5.13639e-02       4.86488e-01      
 4.05000e-01       1.30024e-07       6.14602e-09       8.40481e-15       1.33573e-10       4.86488e-01       5.33871e-02       4.86488e-01      
 4.14000e-01       1.51338e-07       7.41093e-09       8.71412e-15       1.56046e-10       4.86488e-01       5.56093e-02       4.86488e-01      
 4.23000e-01       1.74932e-07       8.87792e-09       9.01810e-15       1.80846e-10       4.86488e-01       5.80287e-02       4.86488e-01      
 4.32000e-01       2.00913e-07       1.05680e-08       9.31525e-15       2.08009e-10       4.86488e-01       6.06427e-02       4.86488e-01      
 4.41000e-01       2.29402e-07       1.25031e-08       9.60422e-15       2.37564e-10       4.86488e-01       6.34478e-02       4.86488e-01      
 4.50000e-01       2.60528e-07       1.47065e-08       9.88390e-15       2.69538e-10       4.86488e-01       6.64408e-02       4.86488e-01      
 4.59000e-01       2.94428e-07       1.72025e-08       1.01534e-14       3.03955e-10       4.86488e-01       6.96187e-02       4.86488e-01      
 4.68000e-01       3.31242e-07       2.00167e-08       1.04120e-14       3.40843e-10       4.86488e-01       7.29785e-02       4.86488e-01      
 4.77000e-01       3.71104e-07       2.31758e-08       1.06591e-14       3.80227e-10       4.86488e-01       7.65178e-02       4.86488e-01      
 4.86000e-01       4.14139e-07       2.67081e-08       1.08946e-14       4.22137e-10       4.86488e-01       8.02342e-02       4.86488e-01      
 4.95000e-01       4.60448e-07       3.06423e-08       1.11181e-14       4.66599e-10       4.86488e-01       8.41255e-02       4.86488e-01      
 5.04000e-01       5.10112e-07       3.50085e-08       1.13298e-14       5.13638e-10       4.86488e-01       8.81895e-02       4.86488e-01      
 5.13000e-01       5.63179e-07       3.98371e-08       1.15297e-14       5.63277e-10       4.86488e-01       9.24238e-02       4.86488e-01      
 5.22000e-01       6.19667e-07       4.51587e-08       1.17180e-14       6.15531e-10       4.86488e-01       9.68255e-02       4.86488e-01      
 5.31000e-01       6.79559e-07       5.10041e-08       1.18950e-14       6.70414e-10       4.86488e-01       1.01392e-01       4.86488e-01      
 5.40000e-01       7.42805e-07       5.74038e-08       1.20612e-14       7.27929e-10       4.86488e-01       1.06118e-01       4.86488e-01      
 5.49000e-01       8.09325e-07       6.43875e-08       1.22169e-14       7.88076e-10       4.86488e-01       1.11002e-01       4.86488e-01      
 5.58000e-01       8.79008e-07       7.19844e-08       1.23627e-14       8.50845e-10       4.86488e-01       1.16038e-01       4.86488e-01      
 5.67000e-01       9.51719e-07       8.02221e-08       1.24990e-14       9.16222e-10       4.86488e-01       1.21221e-01       4.86488e-01      
 5.76000e-01       1.02730e-06       8.91274e-08       1.26263e-14       9.84185e-10       4.86488e-01       1.26547e-01       4.86488e-01      
 5.85000e-01       1.10558e-06       9.87252e-08       1.27451e-14       1.05471e-09       4.86488e-01       1.32009e-01       4.86488e-01      
 5.94000e-01       1.18637e-06       1.09039e-07       1.28560e-14       1.12776e-09       4.86488e-01       1.37602e-01       4.86488e-01      
 6.03000e-01       1.26949e-06       1.20091e-07       1.29595e-14       1.20330e-09       4.86488e-01       1.43319e-01       4.86488e-01      
 6.12000e-01       1.35472e-06       1.31900e-07       1.30560e-14       1.28129e-09       4.86488e-01       1.49156e-01       4.86488e-01      
 6.21000e-01       1.44188e-06       1.44485e-07       1.31460e-14       1.36169e-09       4.86488e-01       1.55105e-01       4.86488e-01      
 6.30000e-01       1.53077e-06       1.57863e-07       1.32300e-14       1.44446e-09       4.86488e-01       1.61161e-01       4.86488e-01      
 6.39000e-01       1.62120e-06       1.72047e-07       1.33084e-14       1.52955e-09       4.86488e-01       1.67318e-01       4.86488e-01      
 6.48000e-01       1.71299e-06       1.87052e-07       1.33816e-14       1.61692e-09       4.86488e-01       1.73570e-01       4.86488e-01      
 6.57000e-01       1.80597e-06       2.02888e-07       1.34500e-14       1.70652e-09       4.86488e-01       1.79911e-01       4.86488e-01      
 6.66000e-01       1.89998e-06       2.19566e-07       1.35139e-14       1.79832e-09       4.86488e-01       1.86336e-01       4.86488e-01      
 6.75000e-01       1.99486e-06       2.37094e-07       1.35738e-14       1.89227e-09       4.86488e-01       1.92841e-01       4.86488e-01      
 6.84000e-01       2.09049e-06       2.55479e-07       1.36298e-14       1.98832e-09       4.86488e-01       1.99419e-01       4.86488e-01      
 6.93000e-01       2.18673e-06       2.74728e-07       1.36823e-14       2.08645e-09       4.86488e-01       2.06066e-01       4.86488e-01      
 7.02000e-01       2.28347e-06       2.94845e-07       1.37316e-14       2.18662e-09       4.86488e-01       2.12779e-01       4.86488e-01      
 7.11000e-01       2.38060e-06       3.15834e-07       1.37778e-14       2.28880e-09       4.86488e-01       2.19553e-01       4.86488e-01      
 7.20000e-01       2.47804e-06       3.37699e-07       1.38214e-14       2.39294e-09       4.86488e-01       2.26384e-01       4.86488e-01      
 7.29000e-01       2.57569e-06       3.60442e-07       1.38623e-14       2.49904e-09       4.86488e-01       2.33269e-01       4.86488e-01      
 7.38000e-01       2.67348e-06       3.84065e-07       1.39010e-14       2.60706e-09       4.86488e-01       2.40204e-01       4.86488e-01      
 7.47000e-01       2.77134e-06       4.08567e-07       1.39374e-14       2.71697e-09       4.86488e-01       2.47186e-01       4.86488e-01      
 7.56000e-01       2.86922e-06       4.33951e-07       1.39719e-14       2.82877e-09       4.86488e-01       2.54214e-01       4.86488e-01      
 7.65000e-01       2.96706e-06       4.60215e-07       1.40045e-14       2.94243e-09       4.86488e-01       2.61283e-01       4.86488e-01      
 7.74000e-01       3.06481e-06       4.87359e-07       1.40354e-14       3.05793e-09       4.86488e-01       2.68392e-01       4.86488e-01      
 7.83000e-01       3.16244e-06       5.15382e-07       1.40647e-14       3.17527e-09       4.86488e-01       2.75539e-01       4.86488e-01      
 7.92000e-01       3.25991e-06       5.44284e-07       1.40926e-14       3.29444e-09       4.86488e-01       2.82721e-01       4.86488e-01      
 8.01000e-01       3.35718e-06       5.74061e-07       1.41191e-14       3.41543e-09       4.86488e-01       2.89937e-01       4.86488e-01      
 8.10000e-01       3.45423e-06       6.04713e-07       1.41444e-14       3.53823e-09       4.86488e-01       2.97185e-01       4.86488e-01      
 8.19000e-01       3.55102e-06       6.36237e-07       1.41685e-14       3.66284e-09       4.86488e-01       3.04465e-01       4.86488e-01      
 8.28000e-01       3.64755e-06       6.68631e-07       1.41915e-14       3.78925e-09       4.86488e-01       3.11773e-01       4.86488e-01      
 8.37000e-01       3.74378e-06       7.01892e-07       1.42135e-14       3.91748e-09       4.86488e-01       3.19110e-01       4.86488e-01      
 8.46000e-01       3.83969e-06       7.36018e-07       1.42346e-14       4.04752e-09       4.86488e-01       3.26474e-01       4.86488e-01      
 8.55000e-01       3.93528e-06       7.71005e-07       1.42548e-14       4.17938e-09       4.86488e-01       3.33863e-01       4.86488e-01      
 8.64000e-01       4.03052e-06       8.06851e-07       1.42742e-14       4.31306e-09       4.86488e-01       3.41278e-01       4.86488e-01      
 8.73000e-01       4.12539e-06       8.43553e-07       1.42928e-14       4.44858e-09       4.86488e-01       3.48718e-01       4.86488e-01      
 8.82000e-01       4.21990e-06       8.81106e-07       1.43108e-14       4.58594e-09       4.86488e-01       3.56181e-01       4.86488e-01      
 8.91000e-01       4.31401e-06       9.19508e-07       1.43281e-14       4.72515e-09       4.86488e-01       3.63667e-01       4.86488e-01      
 9.00000e-01       4.40772e-06       9.58756e-07       1.43447e-14       4.86623e-09       4.86488e-01       3.71176e-01       4.86488e-01      
 9.09000e-01       4.50101e-06       9.98845e-07       1.43608e-14       5.00919e-09       4.86488e-01       3.78706e-01       4.86488e-01      
 9.18000e-01       4.59388e-06       1.03977e-06       1.43764e-14       5.15404e-09       4.86488e-01       3.86258e-01       4.86488e-01      
 9.27000e-01       4.68631e-06       1.08153e-06       1.43914e-14       5.30082e-09       4.86488e-01       3.93831e-01       4.86488e-01      
 9.36000e-01       4.77830e-06       1.12412e-06       1.44060e-14       5.44953e-09       4.86488e-01       4.01424e-01       4.86488e-01      
 9.45000e-01       4.86982e-06       1.16754e-06       1.44201e-14       5.60019e-09       4.86488e-01       4.09038e-01       4.86488e-01      
 9.54000e-01       4.96086e-06       1.21177e-06       1.44337e-14       5.75283e-09       4.86488e-01       4.16672e-01       4.86488e-01      
 9.63000e-01       5.05143e-06       1.25683e-06       1.44470e-14       5.90747e-09       4.86488e-01       4.24326e-01       4.86488e-01      
 9.72000e-01       5.14150e-06       1.30270e-06       1.44599e-14       6.06414e-09       4.86488e-01       4.32000e-01       4.86488e-01      
 9.81000e-01       5.23106e-06       1.34937e-06       1.44725e-14       6.22286e-09       4.86488e-01       4.39692e-01       4.86488e-01      
 9.90000e-01       5.32011e-06       1.39685e-06       1.44847e-14       6.38365e-09       4.86488e-01       4.47404e-01       4.86488e-01      
 9.99000e-01       5.40862e-06       1.44513e-06       1.44965e-14       6.54656e-09       4.86488e-01       4.55136e-01       4.86488e-01      
 1.00800e+00       5.49660e-06       1.49420e-06       1.45081e-14       6.71160e-09       4.86488e-01       4.62886e-01       4.86488e-01      
 1.01700e+00       5.58403e-06       1.54406e-06       1.45194e-14       6.87882e-09       4.86488e-01       4.70655e-01       4.86488e-01      
 1.02600e+00       5.67090e-06       1.59471e-06       1.45304e-14       7.04824e-09       4.86488e-01       4.78443e-01       4.86488e-01      
 1.03500e+00       5.75719e-06       1.64614e-06       1.45411e-14       7.21990e-09       4.86488e-01       4.86250e-01       4.86488e-01      
 1.04400e+00       5.84290e-06       1.69834e-06       1.45516e-14       7.39384e-09       4.86488e-01       4.94075e-01       4.86488e-01      
 1.05300e+00       5.92801e-06       1.75130e-06       1.45618e-14       7.57009e-09       4.86488e-01       5.01919e-01       4.86488e-01      
 1.06200e+00       6.01252e-06       1.80504e-06       1.45718e-14       7.74870e-09       4.86488e-01       5.09782e-01       4.86488e-01      
 1.07100e+00       6.09641e-06       1.85953e-06       1.45816e-14       7.92971e-09       4.86488e-01       5.17663e-01       4.86488e-01      
 1.08000e+00       6.17968e-06       1.91477e-06       1.45912e-14       8.11315e-09       4.86488e-01       5.25563e-01       4.86488e-01      
 1.08900e+00       6.26231e-06       1.97075e-06       1.46006e-14       8.29908e-09       4.86488e-01       5.33482e-01       4.86488e-01      
 1.09800e+00       6.34429e-06       2.02748e-06       1.46097e-14       8.48755e-09       4.86488e-01       5.41419e-01       4.86488e-01      
 1.10700e+00       6.42561e-06       2.08495e-06       1.46187e-14       8.67859e-09       4.86488e-01       5.49375e-01       4.86488e-01      
 1.11600e+00       6.50626e-06       2.14314e-06       1.46276e-14       8.87227e-09       4.86488e-01       5.57350e-01       4.86488e-01      
 1.12500e+00       6.58623e-06       2.20206e-06       1.46362e-14       9.06863e-09       4.86488e-01       5.65343e-01       4.86488e-01      
 1.13400e+00       6.66551e-06       2.26169e-06       1.46447e-14       9.26774e-09       4.86488e-01       5.73356e-01       4.86488e-01      
 1.14300e+00       6.74410e-06       2.32203e-06       1.46530e-14       9.46964e-09       4.86488e-01       5.81387e-01       4.86488e-01      
 1.15200e+00       6.82198e-06       2.38308e-06       1.46611e-14       9.67440e-09       4.86488e-01       5.89437e-01       4.86488e-01      
 1.16100e+00       6.89914e-06       2.44482e-06       1.46691e-14       9.88208e-09       4.86488e-01       5.97506e-01       4.86488e-01      
 1.17000e+00       6.97557e-06       2.50726e-06       1.46770e-14       1.00928e-08       4.86488e-01       6.05594e-01       4.86488e-01      
 1.17900e+00       7.05127e-06       2.57038e-06       1.46847e-14       1.03065e-08       4.86488e-01       6.13701e-01       4.86488e-01      
 1.18800e+00       7.12623e-06       2.63418e-06       1.46923e-14       1.05233e-08       4.86488e-01       6.21828e-01       4.86488e-01      
 1.19700e+00       7.20043e-06       2.69864e-06       1.46998e-14       1.07434e-08       4.86488e-01       6.29973e-01       4.86488e-01      
 1.20600e+00       7.27388e-06       2.76378e-06       1.47071e-14       1.09667e-08       4.86488e-01       6.38138e-01       4.86488e-01      
 1.21500e+00       7.34656e-06       2.82957e-06       1.47143e-14       1.11933e-08       4.86488e-01       6.46322e-01       4.86488e-01      
