
dc (V)            getData("M0:gm    getData("M0:id    getData("M0:cg    getData("M0:gd    getData("M0:vt    getData("M0:vd    getData("M0:vt

 0.00000e+00       1.38588e-12       6.14789e-14       2.56006e-15       1.55858e-15       4.88114e-01       3.96880e-02       4.88114e-01      
 9.00000e-03       1.85775e-12       7.50879e-14       2.54975e-15       2.08951e-15       4.88114e-01       3.96880e-02       4.88114e-01      
 1.80000e-02       2.49014e-12       9.37290e-14       2.53988e-15       2.80118e-15       4.88114e-01       3.96881e-02       4.88114e-01      
 2.70000e-02       3.33757e-12       1.19072e-13       2.53047e-15       3.75507e-15       4.88114e-01       3.96881e-02       4.88114e-01      
 3.60000e-02       4.47305e-12       1.53358e-13       2.52154e-15       5.03354e-15       4.88114e-01       3.96882e-02       4.88114e-01      
 4.50000e-02       5.99428e-12       1.99591e-13       2.51314e-15       6.74686e-15       4.88114e-01       3.96883e-02       4.88114e-01      
 5.40000e-02       8.03202e-12       2.61797e-13       2.50532e-15       9.04274e-15       4.88114e-01       3.96884e-02       4.88114e-01      
 6.30000e-02       1.07612e-11       3.45370e-13       2.49815e-15       1.21189e-14       4.88114e-01       3.96886e-02       4.88114e-01      
 7.20000e-02       1.44155e-11       4.57531e-13       2.49170e-15       1.62399e-14       4.88114e-01       3.96889e-02       4.88114e-01      
 8.10000e-02       1.93076e-11       6.07944e-13       2.48608e-15       2.17598e-14       4.88114e-01       3.96892e-02       4.88114e-01      
 9.00000e-02       2.58548e-11       8.09537e-13       2.48140e-15       2.91522e-14       4.88114e-01       3.96896e-02       4.88114e-01      
 9.90000e-02       3.46141e-11       1.07959e-12       2.47781e-15       3.90499e-14       4.88114e-01       3.96902e-02       4.88114e-01      
 1.08000e-01       4.63284e-11       1.44122e-12       2.47550e-15       5.22986e-14       4.88114e-01       3.96910e-02       4.88114e-01      
 1.17000e-01       6.19874e-11       1.92524e-12       2.47467e-15       7.00276e-14       4.88114e-01       3.96920e-02       4.88114e-01      
 1.26000e-01       8.29056e-11       2.57284e-12       2.47553e-15       9.37431e-14       4.88114e-01       3.96934e-02       4.88114e-01      
 1.35000e-01       1.10829e-10       3.43883e-12       2.47836e-15       1.25451e-13       4.88114e-01       3.96952e-02       4.88114e-01      
 1.44000e-01       1.48079e-10       4.59624e-12       2.48361e-15       1.67824e-13       4.88114e-01       3.96977e-02       4.88114e-01      
 1.53000e-01       1.97725e-10       6.14224e-12       2.49171e-15       2.24415e-13       4.88114e-01       3.97010e-02       4.88114e-01      
 1.62000e-01       2.63826e-10       8.20585e-12       2.50313e-15       2.99939e-13       4.88114e-01       3.97054e-02       4.88114e-01      
 1.71000e-01       3.51728e-10       1.09582e-11       2.51844e-15       4.00647e-13       4.88114e-01       3.97112e-02       4.88114e-01      
 1.80000e-01       4.68455e-10       1.46258e-11       2.53827e-15       5.34807e-13       4.88114e-01       3.97191e-02       4.88114e-01      
 1.89000e-01       6.23205e-10       1.95076e-11       2.56333e-15       7.13321e-13       4.88114e-01       3.97294e-02       4.88114e-01      
 1.98000e-01       8.27970e-10       2.59978e-11       2.59436e-15       9.50531e-13       4.88114e-01       3.97433e-02       4.88114e-01      
 2.07000e-01       1.09831e-09       3.46137e-11       2.63220e-15       1.26524e-12       4.88114e-01       3.97616e-02       4.88114e-01      
 2.16000e-01       1.45432e-09       4.60323e-11       2.67769e-15       1.68197e-12       4.88114e-01       3.97858e-02       4.88114e-01      
 2.25000e-01       1.92175e-09       6.11361e-11       2.73169e-15       2.23259e-12       4.88114e-01       3.98179e-02       4.88114e-01      
 2.34000e-01       2.53339e-09       8.10702e-11       2.79507e-15       2.95826e-12       4.88114e-01       3.98601e-02       4.88114e-01      
 2.43000e-01       3.33063e-09       1.07312e-10       2.86864e-15       3.91174e-12       4.88114e-01       3.99155e-02       4.88114e-01      
 2.52000e-01       4.36525e-09       1.41758e-10       2.95312e-15       5.16021e-12       4.88114e-01       3.99880e-02       4.88114e-01      
 2.61000e-01       5.70131e-09       1.86823e-10       3.04915e-15       6.78832e-12       4.88114e-01       4.00826e-02       4.88114e-01      
 2.70000e-01       7.41711e-09       2.45563e-10       3.15722e-15       8.90164e-12       4.88114e-01       4.02051e-02       4.88114e-01      
 2.79000e-01       9.60718e-09       3.21809e-10       3.27765e-15       1.16302e-11       4.88114e-01       4.03632e-02       4.88114e-01      
 2.88000e-01       1.23839e-08       4.20323e-10       3.41056e-15       1.51316e-11       4.88114e-01       4.05658e-02       4.88114e-01      
 2.97000e-01       1.58788e-08       5.46966e-10       3.55589e-15       1.95941e-11       4.88114e-01       4.08234e-02       4.88114e-01      
 3.06000e-01       2.02432e-08       7.08869e-10       3.71335e-15       2.52379e-11       4.88114e-01       4.11484e-02       4.88114e-01      
 3.15000e-01       2.56480e-08       9.14616e-10       3.88244e-15       3.23151e-11       4.88114e-01       4.15548e-02       4.88114e-01      
 3.24000e-01       3.22816e-08       1.17441e-09       4.06244e-15       4.11072e-11       4.88114e-01       4.20577e-02       4.88114e-01      
 3.33000e-01       4.03478e-08       1.50022e-09       4.25247e-15       5.19198e-11       4.88114e-01       4.26735e-02       4.88114e-01      
 3.42000e-01       5.00604e-08       1.90591e-09       4.45143e-15       6.50748e-11       4.88114e-01       4.34187e-02       4.88114e-01      
 3.51000e-01       6.16376e-08       2.40727e-09       4.65809e-15       8.08993e-11       4.88114e-01       4.43096e-02       4.88114e-01      
 3.60000e-01       7.52946e-08       3.02208e-09       4.87112e-15       9.97138e-11       4.88114e-01       4.53614e-02       4.88114e-01      
 3.69000e-01       9.12365e-08       3.76998e-09       5.08906e-15       1.21819e-10       4.88114e-01       4.65872e-02       4.88114e-01      
 3.78000e-01       1.09652e-07       4.67241e-09       5.31044e-15       1.47487e-10       4.88114e-01       4.79979e-02       4.88114e-01      
 3.87000e-01       1.30712e-07       5.75242e-09       5.53374e-15       1.76947e-10       4.88114e-01       4.96015e-02       4.88114e-01      
 3.96000e-01       1.54566e-07       7.03451e-09       5.75749e-15       2.10390e-10       4.88114e-01       5.14030e-02       4.88114e-01      
 4.05000e-01       1.81354e-07       8.54447e-09       5.98027e-15       2.47962e-10       4.88114e-01       5.34048e-02       4.88114e-01      
 4.14000e-01       2.11206e-07       1.03093e-08       6.20072e-15       2.89770e-10       4.88114e-01       5.56071e-02       4.88114e-01      
 4.23000e-01       2.44260e-07       1.23572e-08       6.41762e-15       3.35892e-10       4.88114e-01       5.80082e-02       4.88114e-01      
 4.32000e-01       2.80660e-07       1.47176e-08       6.62985e-15       3.86383e-10       4.88114e-01       6.06055e-02       4.88114e-01      
 4.41000e-01       3.20570e-07       1.74214e-08       6.83644e-15       4.41285e-10       4.88114e-01       6.33957e-02       4.88114e-01      
 4.50000e-01       3.64167e-07       2.05009e-08       7.03658e-15       5.00632e-10       4.88114e-01       6.63753e-02       4.88114e-01      
 4.59000e-01       4.11642e-07       2.39902e-08       7.22958e-15       5.64459e-10       4.88114e-01       6.95412e-02       4.88114e-01      
 4.68000e-01       4.63190e-07       2.79251e-08       7.41493e-15       6.32803e-10       4.88114e-01       7.28904e-02       4.88114e-01      
 4.77000e-01       5.18999e-07       3.23430e-08       7.59224e-15       7.05703e-10       4.88114e-01       7.64202e-02       4.88114e-01      
 4.86000e-01       5.79245e-07       3.72832e-08       7.76126e-15       7.83200e-10       4.88114e-01       8.01282e-02       4.88114e-01      
 4.95000e-01       6.44077e-07       4.27863e-08       7.92185e-15       8.65337e-10       4.88114e-01       8.40121e-02       4.88114e-01      
 5.04000e-01       7.13610e-07       4.88941e-08       8.07399e-15       9.52153e-10       4.88114e-01       8.80697e-02       4.88114e-01      
 5.13000e-01       7.87919e-07       5.56492e-08       8.21773e-15       1.04368e-09       4.88114e-01       9.22983e-02       4.88114e-01      
 5.22000e-01       8.67033e-07       6.30948e-08       8.35323e-15       1.13996e-09       4.88114e-01       9.66954e-02       4.88114e-01      
 5.31000e-01       9.50936e-07       7.12742e-08       8.48069e-15       1.24099e-09       4.88114e-01       1.01258e-01       4.88114e-01      
 5.40000e-01       1.03956e-06       8.02301e-08       8.60037e-15       1.34679e-09       4.88114e-01       1.05982e-01       4.88114e-01      
 5.49000e-01       1.13280e-06       9.00046e-08       8.71257e-15       1.45735e-09       4.88114e-01       1.10863e-01       4.88114e-01      
 5.58000e-01       1.23050e-06       1.00639e-07       8.81762e-15       1.57266e-09       4.88114e-01       1.15898e-01       4.88114e-01      
 5.67000e-01       1.33248e-06       1.12171e-07       8.91586e-15       1.69269e-09       4.88114e-01       1.21082e-01       4.88114e-01      
 5.76000e-01       1.43852e-06       1.24640e-07       9.00765e-15       1.81740e-09       4.88114e-01       1.26408e-01       4.88114e-01      
 5.85000e-01       1.54837e-06       1.38081e-07       9.09336e-15       1.94673e-09       4.88114e-01       1.31873e-01       4.88114e-01      
 5.94000e-01       1.66177e-06       1.52527e-07       9.17336e-15       2.08064e-09       4.88114e-01       1.37469e-01       4.88114e-01      
 6.03000e-01       1.77845e-06       1.68008e-07       9.24800e-15       2.21906e-09       4.88114e-01       1.43190e-01       4.88114e-01      
 6.12000e-01       1.89813e-06       1.84553e-07       9.31762e-15       2.36191e-09       4.88114e-01       1.49032e-01       4.88114e-01      
 6.21000e-01       2.02053e-06       2.02188e-07       9.38258e-15       2.50912e-09       4.88114e-01       1.54987e-01       4.88114e-01      
 6.30000e-01       2.14538e-06       2.20935e-07       9.44318e-15       2.66060e-09       4.88114e-01       1.61049e-01       4.88114e-01      
 6.39000e-01       2.27240e-06       2.40817e-07       9.49975e-15       2.81629e-09       4.88114e-01       1.67213e-01       4.88114e-01      
 6.48000e-01       2.40133e-06       2.61850e-07       9.55256e-15       2.97609e-09       4.88114e-01       1.73473e-01       4.88114e-01      
 6.57000e-01       2.53194e-06       2.84051e-07       9.60190e-15       3.13994e-09       4.88114e-01       1.79823e-01       4.88114e-01      
 6.66000e-01       2.66399e-06       3.07434e-07       9.64803e-15       3.30774e-09       4.88114e-01       1.86257e-01       4.88114e-01      
 6.75000e-01       2.79726e-06       3.32011e-07       9.69119e-15       3.47942e-09       4.88114e-01       1.92771e-01       4.88114e-01      
 6.84000e-01       2.93156e-06       3.57792e-07       9.73160e-15       3.65491e-09       4.88114e-01       1.99358e-01       4.88114e-01      
 6.93000e-01       3.06670e-06       3.84786e-07       9.76947e-15       3.83415e-09       4.88114e-01       2.06016e-01       4.88114e-01      
 7.02000e-01       3.20253e-06       4.12999e-07       9.80500e-15       4.01706e-09       4.88114e-01       2.12739e-01       4.88114e-01      
 7.11000e-01       3.33888e-06       4.42437e-07       9.83837e-15       4.20358e-09       4.88114e-01       2.19522e-01       4.88114e-01      
 7.20000e-01       3.47563e-06       4.73104e-07       9.86975e-15       4.39366e-09       4.88114e-01       2.26363e-01       4.88114e-01      
 7.29000e-01       3.61266e-06       5.05003e-07       9.89929e-15       4.58724e-09       4.88114e-01       2.33258e-01       4.88114e-01      
 7.38000e-01       3.74985e-06       5.38136e-07       9.92713e-15       4.78429e-09       4.88114e-01       2.40203e-01       4.88114e-01      
 7.47000e-01       3.88711e-06       5.72504e-07       9.95340e-15       4.98475e-09       4.88114e-01       2.47195e-01       4.88114e-01      
 7.56000e-01       4.02435e-06       6.08107e-07       9.97822e-15       5.18859e-09       4.88114e-01       2.54231e-01       4.88114e-01      
 7.65000e-01       4.16150e-06       6.44944e-07       1.00017e-14       5.39578e-09       4.88114e-01       2.61309e-01       4.88114e-01      
 7.74000e-01       4.29850e-06       6.83016e-07       1.00240e-14       5.60629e-09       4.88114e-01       2.68426e-01       4.88114e-01      
 7.83000e-01       4.43527e-06       7.22319e-07       1.00451e-14       5.82009e-09       4.88114e-01       2.75581e-01       4.88114e-01      
 7.92000e-01       4.57178e-06       7.62851e-07       1.00651e-14       6.03717e-09       4.88114e-01       2.82770e-01       4.88114e-01      
 8.01000e-01       4.70797e-06       8.04611e-07       1.00842e-14       6.25751e-09       4.88114e-01       2.89993e-01       4.88114e-01      
 8.10000e-01       4.84380e-06       8.47595e-07       1.01024e-14       6.48110e-09       4.88114e-01       2.97248e-01       4.88114e-01      
 8.19000e-01       4.97924e-06       8.91799e-07       1.01197e-14       6.70793e-09       4.88114e-01       3.04532e-01       4.88114e-01      
 8.28000e-01       5.11425e-06       9.37220e-07       1.01363e-14       6.93800e-09       4.88114e-01       3.11845e-01       4.88114e-01      
 8.37000e-01       5.24880e-06       9.83854e-07       1.01521e-14       7.17131e-09       4.88114e-01       3.19186e-01       4.88114e-01      
 8.46000e-01       5.38287e-06       1.03170e-06       1.01672e-14       7.40786e-09       4.88114e-01       3.26552e-01       4.88114e-01      
 8.55000e-01       5.51643e-06       1.08074e-06       1.01818e-14       7.64766e-09       4.88114e-01       3.33945e-01       4.88114e-01      
 8.64000e-01       5.64946e-06       1.13099e-06       1.01957e-14       7.89072e-09       4.88114e-01       3.41361e-01       4.88114e-01      
 8.73000e-01       5.78194e-06       1.18243e-06       1.02091e-14       8.13706e-09       4.88114e-01       3.48801e-01       4.88114e-01      
 8.82000e-01       5.91385e-06       1.23506e-06       1.02220e-14       8.38668e-09       4.88114e-01       3.56264e-01       4.88114e-01      
 8.91000e-01       6.04518e-06       1.28888e-06       1.02344e-14       8.63961e-09       4.88114e-01       3.63749e-01       4.88114e-01      
 9.00000e-01       6.17589e-06       1.34387e-06       1.02464e-14       8.89587e-09       4.88114e-01       3.71255e-01       4.88114e-01      
 9.09000e-01       6.30598e-06       1.40004e-06       1.02579e-14       9.15548e-09       4.88114e-01       3.78783e-01       4.88114e-01      
 9.18000e-01       6.43543e-06       1.45738e-06       1.02691e-14       9.41848e-09       4.88114e-01       3.86330e-01       4.88114e-01      
 9.27000e-01       6.56423e-06       1.51587e-06       1.02799e-14       9.68488e-09       4.88114e-01       3.93898e-01       4.88114e-01      
 9.36000e-01       6.69235e-06       1.57553e-06       1.02903e-14       9.95473e-09       4.88114e-01       4.01486e-01       4.88114e-01      
 9.45000e-01       6.81979e-06       1.63633e-06       1.03004e-14       1.02281e-08       4.88114e-01       4.09093e-01       4.88114e-01      
 9.54000e-01       6.94652e-06       1.69828e-06       1.03102e-14       1.05049e-08       4.88114e-01       4.16719e-01       4.88114e-01      
 9.63000e-01       7.07254e-06       1.76136e-06       1.03198e-14       1.07853e-08       4.88114e-01       4.24364e-01       4.88114e-01      
 9.72000e-01       7.19783e-06       1.82558e-06       1.03290e-14       1.10693e-08       4.88114e-01       4.32028e-01       4.88114e-01      
 9.81000e-01       7.32237e-06       1.89092e-06       1.03380e-14       1.13569e-08       4.88114e-01       4.39710e-01       4.88114e-01      
 9.90000e-01       7.44614e-06       1.95738e-06       1.03468e-14       1.16483e-08       4.88114e-01       4.47410e-01       4.88114e-01      
 9.99000e-01       7.56914e-06       2.02494e-06       1.03553e-14       1.19433e-08       4.88114e-01       4.55129e-01       4.88114e-01      
 1.00800e+00       7.69135e-06       2.09361e-06       1.03636e-14       1.22422e-08       4.88114e-01       4.62865e-01       4.88114e-01      
 1.01700e+00       7.81275e-06       2.16338e-06       1.03717e-14       1.25449e-08       4.88114e-01       4.70619e-01       4.88114e-01      
 1.02600e+00       7.93333e-06       2.23424e-06       1.03796e-14       1.28515e-08       4.88114e-01       4.78391e-01       4.88114e-01      
 1.03500e+00       8.05307e-06       2.30617e-06       1.03873e-14       1.31621e-08       4.88114e-01       4.86181e-01       4.88114e-01      
 1.04400e+00       8.17197e-06       2.37919e-06       1.03948e-14       1.34767e-08       4.88114e-01       4.93989e-01       4.88114e-01      
 1.05300e+00       8.28999e-06       2.45326e-06       1.04021e-14       1.37954e-08       4.88114e-01       5.01814e-01       4.88114e-01      
 1.06200e+00       8.40714e-06       2.52840e-06       1.04093e-14       1.41182e-08       4.88114e-01       5.09656e-01       4.88114e-01      
 1.07100e+00       8.52339e-06       2.60459e-06       1.04163e-14       1.44453e-08       4.88114e-01       5.17517e-01       4.88114e-01      
 1.08000e+00       8.63873e-06       2.68181e-06       1.04232e-14       1.47767e-08       4.88114e-01       5.25395e-01       4.88114e-01      
 1.08900e+00       8.75315e-06       2.76008e-06       1.04299e-14       1.51125e-08       4.88114e-01       5.33291e-01       4.88114e-01      
 1.09800e+00       8.86663e-06       2.83936e-06       1.04365e-14       1.54527e-08       4.88114e-01       5.41204e-01       4.88114e-01      
 1.10700e+00       8.97916e-06       2.91967e-06       1.04429e-14       1.57975e-08       4.88114e-01       5.49135e-01       4.88114e-01      
 1.11600e+00       9.09073e-06       3.00098e-06       1.04492e-14       1.61469e-08       4.88114e-01       5.57084e-01       4.88114e-01      
 1.12500e+00       9.20132e-06       3.08330e-06       1.04554e-14       1.65011e-08       4.88114e-01       5.65050e-01       4.88114e-01      
 1.13400e+00       9.31092e-06       3.16660e-06       1.04615e-14       1.68601e-08       4.88114e-01       5.73034e-01       4.88114e-01      
 1.14300e+00       9.41952e-06       3.25089e-06       1.04675e-14       1.72240e-08       4.88114e-01       5.81036e-01       4.88114e-01      
 1.15200e+00       9.52710e-06       3.33614e-06       1.04733e-14       1.75929e-08       4.88114e-01       5.89056e-01       4.88114e-01      
 1.16100e+00       9.63365e-06       3.42237e-06       1.04791e-14       1.79669e-08       4.88114e-01       5.97094e-01       4.88114e-01      
 1.17000e+00       9.73917e-06       3.50954e-06       1.04847e-14       1.83462e-08       4.88114e-01       6.05150e-01       4.88114e-01      
 1.17900e+00       9.84363e-06       3.59767e-06       1.04903e-14       1.87308e-08       4.88114e-01       6.13224e-01       4.88114e-01      
 1.18800e+00       9.94703e-06       3.68672e-06       1.04957e-14       1.91209e-08       4.88114e-01       6.21317e-01       4.88114e-01      
 1.19700e+00       1.00494e-05       3.77671e-06       1.05011e-14       1.95165e-08       4.88114e-01       6.29427e-01       4.88114e-01      
 1.20600e+00       1.01506e-05       3.86760e-06       1.05063e-14       1.99179e-08       4.88114e-01       6.37556e-01       4.88114e-01      
 1.21500e+00       1.02507e-05       3.95941e-06       1.05115e-14       2.03252e-08       4.88114e-01       6.45703e-01       4.88114e-01      
