
dc (V)            getData("M0:gm    getData("M0:id    getData("M0:cg    getData("M0:gd    getData("M0:vt    getData("M0:vd    getData("M0:vt

 0.00000e+00       2.45698e-12       9.46147e-14       1.47708e-15       4.55686e-15       4.92114e-01       4.04624e-02       4.92114e-01      
 9.00000e-03       3.29051e-12       1.19417e-13       1.47138e-15       6.10349e-15       4.92114e-01       4.04625e-02       4.92114e-01      
 1.80000e-02       4.40658e-12       1.53032e-13       1.46591e-15       8.17475e-15       4.92114e-01       4.04625e-02       4.92114e-01      
 2.70000e-02       5.90082e-12       1.98402e-13       1.46068e-15       1.09484e-14       4.92114e-01       4.04626e-02       4.92114e-01      
 3.60000e-02       7.90117e-12       2.59473e-13       1.45572e-15       1.46625e-14       4.92114e-01       4.04626e-02       4.92114e-01      
 4.50000e-02       1.05787e-11       3.41528e-13       1.45102e-15       1.96354e-14       4.92114e-01       4.04627e-02       4.92114e-01      
 5.40000e-02       1.41622e-11       4.51636e-13       1.44664e-15       2.62932e-14       4.92114e-01       4.04628e-02       4.92114e-01      
 6.30000e-02       1.89574e-11       5.99258e-13       1.44259e-15       3.52056e-14       4.92114e-01       4.04630e-02       4.92114e-01      
 7.20000e-02       2.53727e-11       7.97050e-13       1.43892e-15       4.71348e-14       4.92114e-01       4.04632e-02       4.92114e-01      
 8.10000e-02       3.39536e-11       1.06193e-12       1.43568e-15       6.30995e-14       4.92114e-01       4.04635e-02       4.92114e-01      
 9.00000e-02       4.54281e-11       1.41651e-12       1.43293e-15       8.44610e-14       4.92114e-01       4.04639e-02       4.92114e-01      
 9.90000e-02       6.07670e-11       1.89101e-12       1.43075e-15       1.13038e-13       4.92114e-01       4.04645e-02       4.92114e-01      
 1.08000e-01       8.12645e-11       2.52576e-12       1.42922e-15       1.51258e-13       4.92114e-01       4.04652e-02       4.92114e-01      
 1.17000e-01       1.08644e-10       3.37459e-12       1.42847e-15       2.02360e-13       4.92114e-01       4.04661e-02       4.92114e-01      
 1.26000e-01       1.45191e-10       4.50928e-12       1.42857e-15       2.70664e-13       4.92114e-01       4.04674e-02       4.92114e-01      
 1.35000e-01       1.93944e-10       6.02540e-12       1.42971e-15       3.61918e-13       4.92114e-01       4.04691e-02       4.92114e-01      
 1.44000e-01       2.58939e-10       8.05016e-12       1.43209e-15       4.83773e-13       4.92114e-01       4.04714e-02       4.92114e-01      
 1.53000e-01       3.45513e-10       1.07527e-11       1.43594e-15       6.46400e-13       4.92114e-01       4.04744e-02       4.92114e-01      
 1.62000e-01       4.60719e-10       1.43576e-11       1.44151e-15       8.63294e-13       4.92114e-01       4.04784e-02       4.92114e-01      
 1.71000e-01       6.13852e-10       1.91627e-11       1.44911e-15       1.15234e-12       4.92114e-01       4.04838e-02       4.92114e-01      
 1.80000e-01       8.17126e-10       2.55618e-11       1.45905e-15       1.53718e-12       4.92114e-01       4.04909e-02       4.92114e-01      
 1.89000e-01       1.08654e-09       3.40753e-11       1.47170e-15       2.04901e-12       4.92114e-01       4.05005e-02       4.92114e-01      
 1.98000e-01       1.44297e-09       4.53885e-11       1.48748e-15       2.72886e-12       4.92114e-01       4.05131e-02       4.92114e-01      
 2.07000e-01       1.91353e-09       6.04019e-11       1.50682e-15       3.63055e-12       4.92114e-01       4.05299e-02       4.92114e-01      
 2.16000e-01       2.53327e-09       8.02939e-11       1.53018e-15       4.82436e-12       4.92114e-01       4.05521e-02       4.92114e-01      
 2.25000e-01       3.34718e-09       1.06602e-10       1.55804e-15       6.40165e-12       4.92114e-01       4.05814e-02       4.92114e-01      
 2.34000e-01       4.41266e-09       1.41323e-10       1.59085e-15       8.48058e-12       4.92114e-01       4.06201e-02       4.92114e-01      
 2.43000e-01       5.80235e-09       1.87036e-10       1.62909e-15       1.12130e-11       4.92114e-01       4.06708e-02       4.92114e-01      
 2.52000e-01       7.60729e-09       2.47055e-10       1.67317e-15       1.47924e-11       4.92114e-01       4.07373e-02       4.92114e-01      
 2.61000e-01       9.94051e-09       3.25610e-10       1.72346e-15       1.94635e-11       4.92114e-01       4.08241e-02       4.92114e-01      
 2.70000e-01       1.29406e-08       4.28061e-10       1.78026e-15       2.55324e-11       4.92114e-01       4.09367e-02       4.92114e-01      
 2.79000e-01       1.67755e-08       5.61146e-10       1.84379e-15       3.33773e-11       4.92114e-01       4.10821e-02       4.92114e-01      
 2.88000e-01       2.16455e-08       7.33256e-10       1.91415e-15       4.34593e-11       4.92114e-01       4.12689e-02       4.92114e-01      
 2.97000e-01       2.77862e-08       9.54745e-10       1.99135e-15       5.63312e-11       4.92114e-01       4.15070e-02       4.92114e-01      
 3.06000e-01       3.54694e-08       1.23825e-09       2.07529e-15       7.26435e-11       4.92114e-01       4.18082e-02       4.92114e-01      
 3.15000e-01       4.50034e-08       1.59902e-09       2.16574e-15       9.31458e-11       4.92114e-01       4.21861e-02       4.92114e-01      
 3.24000e-01       5.67302e-08       2.05524e-09       2.26237e-15       1.18681e-10       4.92114e-01       4.26555e-02       4.92114e-01      
 3.33000e-01       7.10205e-08       2.62830e-09       2.36471e-15       1.50170e-10       4.92114e-01       4.32326e-02       4.92114e-01      
 3.42000e-01       8.82659e-08       3.34303e-09       2.47222e-15       1.88590e-10       4.92114e-01       4.39342e-02       4.92114e-01      
 3.51000e-01       1.08868e-07       4.22784e-09       2.58426e-15       2.34943e-10       4.92114e-01       4.47770e-02       4.92114e-01      
 3.60000e-01       1.33226e-07       5.31475e-09       2.70012e-15       2.90215e-10       4.92114e-01       4.57770e-02       4.92114e-01      
 3.69000e-01       1.61721e-07       6.63933e-09       2.81904e-15       3.55338e-10       4.92114e-01       4.69486e-02       4.92114e-01      
 3.78000e-01       1.94707e-07       8.24042e-09       2.94019e-15       4.31149e-10       4.92114e-01       4.83038e-02       4.92114e-01      
 3.87000e-01       2.32500e-07       1.01599e-08       3.06278e-15       5.18365e-10       4.92114e-01       4.98520e-02       4.92114e-01      
 3.96000e-01       2.75379e-07       1.24424e-08       3.18597e-15       6.17564e-10       4.92114e-01       5.15997e-02       4.92114e-01      
 4.05000e-01       3.23589e-07       1.51347e-08       3.30897e-15       7.29180e-10       4.92114e-01       5.35504e-02       4.92114e-01      
 4.14000e-01       3.77362e-07       1.82860e-08       3.43103e-15       8.53519e-10       4.92114e-01       5.57051e-02       4.92114e-01      
 4.23000e-01       4.36924e-07       2.19472e-08       3.55145e-15       9.90775e-10       4.92114e-01       5.80626e-02       4.92114e-01      
 4.32000e-01       5.02518e-07       2.61716e-08       3.66957e-15       1.14107e-09       4.92114e-01       6.06208e-02       4.92114e-01      
 4.41000e-01       5.74414e-07       3.10148e-08       3.78484e-15       1.30445e-09       4.92114e-01       6.33761e-02       4.92114e-01      
 4.50000e-01       6.52911e-07       3.65346e-08       3.89676e-15       1.48098e-09       4.92114e-01       6.63251e-02       4.92114e-01      
 4.59000e-01       7.38336e-07       4.27921e-08       4.00494e-15       1.67069e-09       4.92114e-01       6.94642e-02       4.92114e-01      
 4.68000e-01       8.31031e-07       4.98510e-08       4.10904e-15       1.87361e-09       4.92114e-01       7.27900e-02       4.92114e-01      
 4.77000e-01       9.31338e-07       5.77784e-08       4.20882e-15       2.08981e-09       4.92114e-01       7.62995e-02       4.92114e-01      
 4.86000e-01       1.03958e-06       6.66443e-08       4.30410e-15       2.31935e-09       4.92114e-01       7.99900e-02       4.92114e-01      
 4.95000e-01       1.15603e-06       7.65213e-08       4.39479e-15       2.56233e-09       4.92114e-01       8.38589e-02       4.92114e-01      
 5.04000e-01       1.28093e-06       8.74845e-08       4.48085e-15       2.81881e-09       4.92114e-01       8.79038e-02       4.92114e-01      
 5.13000e-01       1.41443e-06       9.96106e-08       4.56227e-15       3.08888e-09       4.92114e-01       9.21219e-02       4.92114e-01      
 5.22000e-01       1.55660e-06       1.12977e-07       4.63912e-15       3.37260e-09       4.92114e-01       9.65106e-02       4.92114e-01      
 5.31000e-01       1.70745e-06       1.27663e-07       4.71150e-15       3.67001e-09       4.92114e-01       1.01067e-01       4.92114e-01      
 5.40000e-01       1.86687e-06       1.43745e-07       4.77954e-15       3.98113e-09       4.92114e-01       1.05787e-01       4.92114e-01      
 5.49000e-01       2.03468e-06       1.61300e-07       4.84339e-15       4.30592e-09       4.92114e-01       1.10667e-01       4.92114e-01      
 5.58000e-01       2.21063e-06       1.80403e-07       4.90321e-15       4.64436e-09       4.92114e-01       1.15702e-01       4.92114e-01      
 5.67000e-01       2.39439e-06       2.01124e-07       4.95921e-15       4.99635e-09       4.92114e-01       1.20888e-01       4.92114e-01      
 5.76000e-01       2.58558e-06       2.23533e-07       5.01156e-15       5.36177e-09       4.92114e-01       1.26219e-01       4.92114e-01      
 5.85000e-01       2.78375e-06       2.47695e-07       5.06048e-15       5.74049e-09       4.92114e-01       1.31690e-01       4.92114e-01      
 5.94000e-01       2.98842e-06       2.73670e-07       5.10615e-15       6.13234e-09       4.92114e-01       1.37295e-01       4.92114e-01      
 6.03000e-01       3.19911e-06       3.01515e-07       5.14878e-15       6.53713e-09       4.92114e-01       1.43028e-01       4.92114e-01      
 6.12000e-01       3.41529e-06       3.31280e-07       5.18856e-15       6.95464e-09       4.92114e-01       1.48883e-01       4.92114e-01      
 6.21000e-01       3.63644e-06       3.63015e-07       5.22567e-15       7.38465e-09       4.92114e-01       1.54853e-01       4.92114e-01      
 6.30000e-01       3.86205e-06       3.96760e-07       5.26031e-15       7.82693e-09       4.92114e-01       1.60932e-01       4.92114e-01      
 6.39000e-01       4.09161e-06       4.32553e-07       5.29264e-15       8.28123e-09       4.92114e-01       1.67114e-01       4.92114e-01      
 6.48000e-01       4.32463e-06       4.70429e-07       5.32283e-15       8.74733e-09       4.92114e-01       1.73393e-01       4.92114e-01      
 6.57000e-01       4.56065e-06       5.10416e-07       5.35103e-15       9.22496e-09       4.92114e-01       1.79763e-01       4.92114e-01      
 6.66000e-01       4.79924e-06       5.52538e-07       5.37739e-15       9.71391e-09       4.92114e-01       1.86219e-01       4.92114e-01      
 6.75000e-01       5.03998e-06       5.96818e-07       5.40205e-15       1.02139e-08       4.92114e-01       1.92754e-01       4.92114e-01      
 6.84000e-01       5.28250e-06       6.43272e-07       5.42513e-15       1.07248e-08       4.92114e-01       1.99364e-01       4.92114e-01      
 6.93000e-01       5.52645e-06       6.91915e-07       5.44676e-15       1.12463e-08       4.92114e-01       2.06044e-01       4.92114e-01      
 7.02000e-01       5.77151e-06       7.42759e-07       5.46704e-15       1.17783e-08       4.92114e-01       2.12789e-01       4.92114e-01      
 7.11000e-01       6.01740e-06       7.95813e-07       5.48609e-15       1.23205e-08       4.92114e-01       2.19594e-01       4.92114e-01      
 7.20000e-01       6.26386e-06       8.51082e-07       5.50399e-15       1.28728e-08       4.92114e-01       2.26457e-01       4.92114e-01      
 7.29000e-01       6.51065e-06       9.08570e-07       5.52083e-15       1.34350e-08       4.92114e-01       2.33372e-01       4.92114e-01      
 7.38000e-01       6.75757e-06       9.68280e-07       5.53670e-15       1.40069e-08       4.92114e-01       2.40337e-01       4.92114e-01      
 7.47000e-01       7.00444e-06       1.03021e-06       5.55166e-15       1.45885e-08       4.92114e-01       2.47348e-01       4.92114e-01      
 7.56000e-01       7.25109e-06       1.09436e-06       5.56580e-15       1.51796e-08       4.92114e-01       2.54402e-01       4.92114e-01      
 7.65000e-01       7.49737e-06       1.16074e-06       5.57917e-15       1.57801e-08       4.92114e-01       2.61496e-01       4.92114e-01      
 7.74000e-01       7.74316e-06       1.22932e-06       5.59183e-15       1.63899e-08       4.92114e-01       2.68628e-01       4.92114e-01      
 7.83000e-01       7.98835e-06       1.30011e-06       5.60383e-15       1.70089e-08       4.92114e-01       2.75795e-01       4.92114e-01      
 7.92000e-01       8.23284e-06       1.37311e-06       5.61522e-15       1.76371e-08       4.92114e-01       2.82996e-01       4.92114e-01      
 8.01000e-01       8.47654e-06       1.44831e-06       5.62606e-15       1.82743e-08       4.92114e-01       2.90228e-01       4.92114e-01      
 8.10000e-01       8.71937e-06       1.52569e-06       5.63637e-15       1.89206e-08       4.92114e-01       2.97489e-01       4.92114e-01      
 8.19000e-01       8.96127e-06       1.60525e-06       5.64620e-15       1.95759e-08       4.92114e-01       3.04779e-01       4.92114e-01      
 8.28000e-01       9.20217e-06       1.68699e-06       5.65559e-15       2.02403e-08       4.92114e-01       3.12094e-01       4.92114e-01      
 8.37000e-01       9.44202e-06       1.77089e-06       5.66456e-15       2.09135e-08       4.92114e-01       3.19435e-01       4.92114e-01      
 8.46000e-01       9.68078e-06       1.85694e-06       5.67314e-15       2.15958e-08       4.92114e-01       3.26800e-01       4.92114e-01      
 8.55000e-01       9.91840e-06       1.94514e-06       5.68137e-15       2.22870e-08       4.92114e-01       3.34188e-01       4.92114e-01      
 8.64000e-01       1.01548e-05       2.03547e-06       5.68926e-15       2.29873e-08       4.92114e-01       3.41597e-01       4.92114e-01      
 8.73000e-01       1.03901e-05       2.12792e-06       5.69683e-15       2.36965e-08       4.92114e-01       3.49028e-01       4.92114e-01      
 8.82000e-01       1.06241e-05       2.22248e-06       5.70412e-15       2.44148e-08       4.92114e-01       3.56478e-01       4.92114e-01      
 8.91000e-01       1.08568e-05       2.31915e-06       5.71114e-15       2.51422e-08       4.92114e-01       3.63948e-01       4.92114e-01      
 9.00000e-01       1.10881e-05       2.41790e-06       5.71790e-15       2.58787e-08       4.92114e-01       3.71437e-01       4.92114e-01      
 9.09000e-01       1.13182e-05       2.51872e-06       5.72442e-15       2.66244e-08       4.92114e-01       3.78944e-01       4.92114e-01      
 9.18000e-01       1.15469e-05       2.62162e-06       5.73072e-15       2.73794e-08       4.92114e-01       3.86469e-01       4.92114e-01      
 9.27000e-01       1.17742e-05       2.72656e-06       5.73682e-15       2.81436e-08       4.92114e-01       3.94011e-01       4.92114e-01      
 9.36000e-01       1.20001e-05       2.83354e-06       5.74271e-15       2.89173e-08       4.92114e-01       4.01570e-01       4.92114e-01      
 9.45000e-01       1.22246e-05       2.94255e-06       5.74842e-15       2.97005e-08       4.92114e-01       4.09145e-01       4.92114e-01      
 9.54000e-01       1.24476e-05       3.05358e-06       5.75396e-15       3.04933e-08       4.92114e-01       4.16736e-01       4.92114e-01      
 9.63000e-01       1.26691e-05       3.16660e-06       5.75933e-15       3.12957e-08       4.92114e-01       4.24344e-01       4.92114e-01      
 9.72000e-01       1.28891e-05       3.28161e-06       5.76454e-15       3.21079e-08       4.92114e-01       4.31967e-01       4.92114e-01      
 9.81000e-01       1.31075e-05       3.39859e-06       5.76961e-15       3.29300e-08       4.92114e-01       4.39605e-01       4.92114e-01      
 9.90000e-01       1.33244e-05       3.51753e-06       5.77454e-15       3.37621e-08       4.92114e-01       4.47259e-01       4.92114e-01      
 9.99000e-01       1.35398e-05       3.63842e-06       5.77934e-15       3.46043e-08       4.92114e-01       4.54928e-01       4.92114e-01      
 1.00800e+00       1.37535e-05       3.76124e-06       5.78402e-15       3.54569e-08       4.92114e-01       4.62612e-01       4.92114e-01      
 1.01700e+00       1.39656e-05       3.88597e-06       5.78857e-15       3.63198e-08       4.92114e-01       4.70310e-01       4.92114e-01      
 1.02600e+00       1.41761e-05       4.01261e-06       5.79301e-15       3.71932e-08       4.92114e-01       4.78024e-01       4.92114e-01      
 1.03500e+00       1.43849e-05       4.14113e-06       5.79735e-15       3.80773e-08       4.92114e-01       4.85752e-01       4.92114e-01      
 1.04400e+00       1.45920e-05       4.27152e-06       5.80158e-15       3.89723e-08       4.92114e-01       4.93496e-01       4.92114e-01      
 1.05300e+00       1.47974e-05       4.40377e-06       5.80572e-15       3.98784e-08       4.92114e-01       5.01253e-01       4.92114e-01      
 1.06200e+00       1.50010e-05       4.53786e-06       5.80976e-15       4.07956e-08       4.92114e-01       5.09026e-01       4.92114e-01      
 1.07100e+00       1.52029e-05       4.67378e-06       5.81371e-15       4.17241e-08       4.92114e-01       5.16813e-01       4.92114e-01      
 1.08000e+00       1.54030e-05       4.81150e-06       5.81758e-15       4.26643e-08       4.92114e-01       5.24615e-01       4.92114e-01      
 1.08900e+00       1.56013e-05       4.95102e-06       5.82137e-15       4.36162e-08       4.92114e-01       5.32431e-01       4.92114e-01      
 1.09800e+00       1.57978e-05       5.09231e-06       5.82508e-15       4.45800e-08       4.92114e-01       5.40262e-01       4.92114e-01      
 1.10700e+00       1.59925e-05       5.23537e-06       5.82871e-15       4.55560e-08       4.92114e-01       5.48108e-01       4.92114e-01      
 1.11600e+00       1.61853e-05       5.38017e-06       5.83227e-15       4.65444e-08       4.92114e-01       5.55969e-01       4.92114e-01      
 1.12500e+00       1.63762e-05       5.52669e-06       5.83577e-15       4.75454e-08       4.92114e-01       5.63844e-01       4.92114e-01      
 1.13400e+00       1.65652e-05       5.67492e-06       5.83919e-15       4.85592e-08       4.92114e-01       5.71734e-01       4.92114e-01      
 1.14300e+00       1.67522e-05       5.82485e-06       5.84255e-15       4.95862e-08       4.92114e-01       5.79639e-01       4.92114e-01      
 1.15200e+00       1.69374e-05       5.97645e-06       5.84586e-15       5.06265e-08       4.92114e-01       5.87559e-01       4.92114e-01      
 1.16100e+00       1.71205e-05       6.12971e-06       5.84910e-15       5.16804e-08       4.92114e-01       5.95495e-01       4.92114e-01      
 1.17000e+00       1.73018e-05       6.28461e-06       5.85228e-15       5.27481e-08       4.92114e-01       6.03445e-01       4.92114e-01      
 1.17900e+00       1.74810e-05       6.44113e-06       5.85541e-15       5.38301e-08       4.92114e-01       6.11411e-01       4.92114e-01      
 1.18800e+00       1.76582e-05       6.59926e-06       5.85849e-15       5.49265e-08       4.92114e-01       6.19391e-01       4.92114e-01      
 1.19700e+00       1.78334e-05       6.75897e-06       5.86151e-15       5.60377e-08       4.92114e-01       6.27388e-01       4.92114e-01      
 1.20600e+00       1.80065e-05       6.92024e-06       5.86449e-15       5.71640e-08       4.92114e-01       6.35399e-01       4.92114e-01      
 1.21500e+00       1.81776e-05       7.08307e-06       5.86741e-15       5.83058e-08       4.92114e-01       6.43427e-01       4.92114e-01      
