
dc (V)            getData("M0:gm    getData("M0:id    getData("M0:cg    getData("M0:gd    getData("M0:vt    getData("M0:vd    getData("M0:vt

 0.00000e+00       1.32263e-12       5.95287e-14       2.68040e-15       1.42742e-15       4.87855e-01       3.96414e-02       4.87855e-01      
 9.00000e-03       1.77306e-12       7.24763e-14       2.66958e-15       1.91377e-15       4.87855e-01       3.96414e-02       4.87855e-01      
 1.80000e-02       2.37674e-12       9.02319e-14       2.65922e-15       2.56572e-15       4.87855e-01       3.96415e-02       4.87855e-01      
 2.70000e-02       3.18576e-12       1.14389e-13       2.64934e-15       3.43962e-15       4.87855e-01       3.96415e-02       4.87855e-01      
 3.60000e-02       4.26981e-12       1.47088e-13       2.63998e-15       4.61094e-15       4.87855e-01       3.96416e-02       4.87855e-01      
 4.50000e-02       5.72224e-12       1.91196e-13       2.63117e-15       6.18075e-15       4.87855e-01       3.96417e-02       4.87855e-01      
 5.40000e-02       7.66791e-12       2.50558e-13       2.62297e-15       8.28443e-15       4.87855e-01       3.96418e-02       4.87855e-01      
 6.30000e-02       1.02739e-11       3.30325e-13       2.61545e-15       1.11032e-14       4.87855e-01       3.96420e-02       4.87855e-01      
 7.20000e-02       1.37635e-11       4.37393e-13       2.60870e-15       1.48796e-14       4.87855e-01       3.96422e-02       4.87855e-01      
 8.10000e-02       1.84352e-11       5.80991e-13       2.60281e-15       1.99383e-14       4.87855e-01       3.96426e-02       4.87855e-01      
 9.00000e-02       2.46878e-11       7.73466e-13       2.59792e-15       2.67132e-14       4.87855e-01       3.96430e-02       4.87855e-01      
 9.90000e-02       3.30534e-11       1.03133e-12       2.59418e-15       3.57847e-14       4.87855e-01       3.96436e-02       4.87855e-01      
 1.08000e-01       4.42417e-11       1.37664e-12       2.59179e-15       4.79280e-14       4.87855e-01       3.96444e-02       4.87855e-01      
 1.17000e-01       5.91981e-11       1.83887e-12       2.59096e-15       6.41786e-14       4.87855e-01       3.96454e-02       4.87855e-01      
 1.26000e-01       7.91787e-11       2.45733e-12       2.59190e-15       8.59175e-14       4.87855e-01       3.96468e-02       4.87855e-01      
 1.35000e-01       1.05852e-10       3.28440e-12       2.59493e-15       1.14984e-13       4.87855e-01       3.96486e-02       4.87855e-01      
 1.44000e-01       1.41434e-10       4.38986e-12       2.60051e-15       1.53829e-13       4.87855e-01       3.96511e-02       4.87855e-01      
 1.53000e-01       1.88861e-10       5.86651e-12       2.60909e-15       2.05709e-13       4.87855e-01       3.96544e-02       4.87855e-01      
 1.62000e-01       2.52007e-10       7.83763e-12       2.62117e-15       2.74950e-13       4.87855e-01       3.96589e-02       4.87855e-01      
 1.71000e-01       3.35982e-10       1.04667e-11       2.63736e-15       3.67284e-13       4.87855e-01       3.96648e-02       4.87855e-01      
 1.80000e-01       4.47496e-10       1.39701e-11       2.65831e-15       4.90289e-13       4.87855e-01       3.96726e-02       4.87855e-01      
 1.89000e-01       5.95337e-10       1.86337e-11       2.68476e-15       6.53966e-13       4.87855e-01       3.96831e-02       4.87855e-01      
 1.98000e-01       7.90962e-10       2.48337e-11       2.71752e-15       8.71465e-13       4.87855e-01       3.96970e-02       4.87855e-01      
 2.07000e-01       1.04924e-09       3.30645e-11       2.75743e-15       1.16002e-12       4.87855e-01       3.97154e-02       4.87855e-01      
 2.16000e-01       1.38934e-09       4.39729e-11       2.80541e-15       1.54213e-12       4.87855e-01       3.97398e-02       4.87855e-01      
 2.25000e-01       1.83588e-09       5.84019e-11       2.86235e-15       2.04701e-12       4.87855e-01       3.97720e-02       4.87855e-01      
 2.34000e-01       2.42017e-09       7.74452e-11       2.92916e-15       2.71237e-12       4.87855e-01       3.98145e-02       4.87855e-01      
 2.43000e-01       3.18173e-09       1.02514e-10       3.00669e-15       3.58661e-12       4.87855e-01       3.98702e-02       4.87855e-01      
 2.52000e-01       4.16997e-09       1.35419e-10       3.09570e-15       4.73127e-12       4.87855e-01       3.99432e-02       4.87855e-01      
 2.61000e-01       5.44604e-09       1.78468e-10       3.19685e-15       6.22393e-12       4.87855e-01       4.00382e-02       4.87855e-01      
 2.70000e-01       7.08466e-09       2.34576e-10       3.31066e-15       8.16130e-12       4.87855e-01       4.01615e-02       4.87855e-01      
 2.79000e-01       9.17600e-09       3.07402e-10       3.43745e-15       1.06625e-11       4.87855e-01       4.03205e-02       4.87855e-01      
 2.88000e-01       1.18272e-08       4.01491e-10       3.57735e-15       1.38718e-11       4.87855e-01       4.05241e-02       4.87855e-01      
 2.97000e-01       1.51638e-08       5.22436e-10       3.73029e-15       1.79616e-11       4.87855e-01       4.07831e-02       4.87855e-01      
 3.06000e-01       1.93299e-08       6.77041e-10       3.89595e-15       2.31334e-11       4.87855e-01       4.11097e-02       4.87855e-01      
 3.15000e-01       2.44884e-08       8.73496e-10       4.07381e-15       2.96178e-11       4.87855e-01       4.15180e-02       4.87855e-01      
 3.24000e-01       3.08188e-08       1.12153e-09       4.26311e-15       3.76721e-11       4.87855e-01       4.20233e-02       4.87855e-01      
 3.33000e-01       3.85152e-08       1.43256e-09       4.46290e-15       4.75759e-11       4.87855e-01       4.26417e-02       4.87855e-01      
 3.42000e-01       4.77810e-08       1.81980e-09       4.67204e-15       5.96231e-11       4.87855e-01       4.33898e-02       4.87855e-01      
 3.51000e-01       5.88241e-08       2.29830e-09       4.88924e-15       7.41128e-11       4.87855e-01       4.42839e-02       4.87855e-01      
 3.60000e-01       7.18489e-08       2.88500e-09       5.11307e-15       9.13377e-11       4.87855e-01       4.53391e-02       4.87855e-01      
 3.69000e-01       8.70505e-08       3.59863e-09       5.34202e-15       1.11573e-10       4.87855e-01       4.65685e-02       4.87855e-01      
 3.78000e-01       1.04609e-07       4.45961e-09       5.57453e-15       1.35065e-10       4.87855e-01       4.79829e-02       4.87855e-01      
 3.87000e-01       1.24685e-07       5.48988e-09       5.80902e-15       1.62027e-10       4.87855e-01       4.95901e-02       4.87855e-01      
 3.96000e-01       1.47423e-07       6.71278e-09       6.04394e-15       1.92631e-10       4.87855e-01       5.13952e-02       4.87855e-01      
 4.05000e-01       1.72954e-07       8.15288e-09       6.27779e-15       2.27011e-10       4.87855e-01       5.34005e-02       4.87855e-01      
 4.14000e-01       2.01406e-07       9.83588e-09       6.50916e-15       2.65268e-10       4.87855e-01       5.56059e-02       4.87855e-01      
 4.23000e-01       2.32907e-07       1.17887e-08       6.73676e-15       3.07474e-10       4.87855e-01       5.80099e-02       4.87855e-01      
 4.32000e-01       2.67597e-07       1.40393e-08       6.95942e-15       3.53679e-10       4.87855e-01       6.06098e-02       4.87855e-01      
 4.41000e-01       3.05633e-07       1.66171e-08       7.17614e-15       4.03925e-10       4.87855e-01       6.34023e-02       4.87855e-01      
 4.50000e-01       3.47184e-07       1.95531e-08       7.38605e-15       4.58243e-10       4.87855e-01       6.63841e-02       4.87855e-01      
 4.59000e-01       3.92432e-07       2.28796e-08       7.58846e-15       5.16669e-10       4.87855e-01       6.95518e-02       4.87855e-01      
 4.68000e-01       4.41562e-07       2.66308e-08       7.78281e-15       5.79236e-10       4.87855e-01       7.29027e-02       4.87855e-01      
 4.77000e-01       4.94756e-07       3.08424e-08       7.96871e-15       6.45983e-10       4.87855e-01       7.64339e-02       4.87855e-01      
 4.86000e-01       5.52180e-07       3.55518e-08       8.14589e-15       7.16948e-10       4.87855e-01       8.01432e-02       4.87855e-01      
 4.95000e-01       6.13975e-07       4.07977e-08       8.31422e-15       7.92171e-10       4.87855e-01       8.40283e-02       4.87855e-01      
 5.04000e-01       6.80250e-07       4.66200e-08       8.47368e-15       8.71689e-10       4.87855e-01       8.80868e-02       4.87855e-01      
 5.13000e-01       7.51076e-07       5.30593e-08       8.62432e-15       9.55535e-10       4.87855e-01       9.23163e-02       4.87855e-01      
 5.22000e-01       8.26479e-07       6.01567e-08       8.76632e-15       1.04374e-09       4.87855e-01       9.67140e-02       4.87855e-01      
 5.31000e-01       9.06444e-07       6.79534e-08       8.89988e-15       1.13631e-09       4.87855e-01       1.01277e-01       4.87855e-01      
 5.40000e-01       9.90906e-07       7.64902e-08       9.02527e-15       1.23325e-09       4.87855e-01       1.06001e-01       4.87855e-01      
 5.49000e-01       1.07976e-06       8.58071e-08       9.14282e-15       1.33458e-09       4.87855e-01       1.10883e-01       4.87855e-01      
 5.58000e-01       1.17287e-06       9.59431e-08       9.25287e-15       1.44026e-09       4.87855e-01       1.15918e-01       4.87855e-01      
 5.67000e-01       1.27004e-06       1.06936e-07       9.35579e-15       1.55027e-09       4.87855e-01       1.21102e-01       4.87855e-01      
 5.76000e-01       1.37108e-06       1.18820e-07       9.45195e-15       1.66458e-09       4.87855e-01       1.26428e-01       4.87855e-01      
 5.85000e-01       1.47574e-06       1.31631e-07       9.54174e-15       1.78315e-09       4.87855e-01       1.31892e-01       4.87855e-01      
 5.94000e-01       1.58379e-06       1.45399e-07       9.62554e-15       1.90591e-09       4.87855e-01       1.37487e-01       4.87855e-01      
 6.03000e-01       1.69496e-06       1.60153e-07       9.70372e-15       2.03281e-09       4.87855e-01       1.43209e-01       4.87855e-01      
 6.12000e-01       1.80898e-06       1.75921e-07       9.77665e-15       2.16378e-09       4.87855e-01       1.49049e-01       4.87855e-01      
 6.21000e-01       1.92559e-06       1.92728e-07       9.84468e-15       2.29876e-09       4.87855e-01       1.55003e-01       4.87855e-01      
 6.30000e-01       2.04453e-06       2.10594e-07       9.90816e-15       2.43766e-09       4.87855e-01       1.61065e-01       4.87855e-01      
 6.39000e-01       2.16554e-06       2.29541e-07       9.96741e-15       2.58043e-09       4.87855e-01       1.67228e-01       4.87855e-01      
 6.48000e-01       2.28837e-06       2.49584e-07       1.00227e-14       2.72697e-09       4.87855e-01       1.73486e-01       4.87855e-01      
 6.57000e-01       2.41280e-06       2.70741e-07       1.00744e-14       2.87722e-09       4.87855e-01       1.79834e-01       4.87855e-01      
 6.66000e-01       2.53860e-06       2.93024e-07       1.01227e-14       3.03111e-09       4.87855e-01       1.86267e-01       4.87855e-01      
 6.75000e-01       2.66556e-06       3.16444e-07       1.01679e-14       3.18857e-09       4.87855e-01       1.92779e-01       4.87855e-01      
 6.84000e-01       2.79351e-06       3.41011e-07       1.02103e-14       3.34953e-09       4.87855e-01       1.99366e-01       4.87855e-01      
 6.93000e-01       2.92227e-06       3.66734e-07       1.02499e-14       3.51392e-09       4.87855e-01       2.06022e-01       4.87855e-01      
 7.02000e-01       3.05167e-06       3.93618e-07       1.02872e-14       3.68169e-09       4.87855e-01       2.12743e-01       4.87855e-01      
 7.11000e-01       3.18159e-06       4.21669e-07       1.03221e-14       3.85278e-09       4.87855e-01       2.19525e-01       4.87855e-01      
 7.20000e-01       3.31189e-06       4.50892e-07       1.03550e-14       4.02714e-09       4.87855e-01       2.26364e-01       4.87855e-01      
 7.29000e-01       3.44245e-06       4.81288e-07       1.03859e-14       4.20472e-09       4.87855e-01       2.33257e-01       4.87855e-01      
 7.38000e-01       3.57317e-06       5.12859e-07       1.04151e-14       4.38548e-09       4.87855e-01       2.40201e-01       4.87855e-01      
 7.47000e-01       3.70397e-06       5.45608e-07       1.04426e-14       4.56938e-09       4.87855e-01       2.47191e-01       4.87855e-01      
 7.56000e-01       3.83476e-06       5.79534e-07       1.04686e-14       4.75639e-09       4.87855e-01       2.54226e-01       4.87855e-01      
 7.65000e-01       3.96546e-06       6.14636e-07       1.04932e-14       4.94648e-09       4.87855e-01       2.61303e-01       4.87855e-01      
 7.74000e-01       4.09603e-06       6.50914e-07       1.05166e-14       5.13962e-09       4.87855e-01       2.68419e-01       4.87855e-01      
 7.83000e-01       4.22639e-06       6.88365e-07       1.05387e-14       5.33579e-09       4.87855e-01       2.75572e-01       4.87855e-01      
 7.92000e-01       4.35650e-06       7.26989e-07       1.05597e-14       5.53497e-09       4.87855e-01       2.82761e-01       4.87855e-01      
 8.01000e-01       4.48631e-06       7.66783e-07       1.05797e-14       5.73715e-09       4.87855e-01       2.89983e-01       4.87855e-01      
 8.10000e-01       4.61579e-06       8.07743e-07       1.05987e-14       5.94232e-09       4.87855e-01       2.97236e-01       4.87855e-01      
 8.19000e-01       4.74490e-06       8.49866e-07       1.06169e-14       6.15047e-09       4.87855e-01       3.04520e-01       4.87855e-01      
 8.28000e-01       4.87361e-06       8.93150e-07       1.06342e-14       6.36160e-09       4.87855e-01       3.11832e-01       4.87855e-01      
 8.37000e-01       5.00190e-06       9.37590e-07       1.06508e-14       6.57571e-09       4.87855e-01       3.19172e-01       4.87855e-01      
 8.46000e-01       5.12972e-06       9.83183e-07       1.06667e-14       6.79281e-09       4.87855e-01       3.26539e-01       4.87855e-01      
 8.55000e-01       5.25708e-06       1.02992e-06       1.06819e-14       7.01289e-09       4.87855e-01       3.33931e-01       4.87855e-01      
 8.64000e-01       5.38393e-06       1.07781e-06       1.06965e-14       7.23598e-09       4.87855e-01       3.41347e-01       4.87855e-01      
 8.73000e-01       5.51027e-06       1.12683e-06       1.07106e-14       7.46207e-09       4.87855e-01       3.48787e-01       4.87855e-01      
 8.82000e-01       5.63606e-06       1.17699e-06       1.07241e-14       7.69120e-09       4.87855e-01       3.56250e-01       4.87855e-01      
 8.91000e-01       5.76131e-06       1.22828e-06       1.07371e-14       7.92336e-09       4.87855e-01       3.63735e-01       4.87855e-01      
 9.00000e-01       5.88598e-06       1.28069e-06       1.07496e-14       8.15860e-09       4.87855e-01       3.71242e-01       4.87855e-01      
 9.09000e-01       6.01007e-06       1.33422e-06       1.07617e-14       8.39692e-09       4.87855e-01       3.78770e-01       4.87855e-01      
 9.18000e-01       6.13355e-06       1.38887e-06       1.07734e-14       8.63835e-09       4.87855e-01       3.86319e-01       4.87855e-01      
 9.27000e-01       6.25641e-06       1.44462e-06       1.07848e-14       8.88293e-09       4.87855e-01       3.93888e-01       4.87855e-01      
 9.36000e-01       6.37864e-06       1.50148e-06       1.07957e-14       9.13067e-09       4.87855e-01       4.01477e-01       4.87855e-01      
 9.45000e-01       6.50023e-06       1.55943e-06       1.08063e-14       9.38162e-09       4.87855e-01       4.09085e-01       4.87855e-01      
 9.54000e-01       6.62115e-06       1.61848e-06       1.08166e-14       9.63580e-09       4.87855e-01       4.16713e-01       4.87855e-01      
 9.63000e-01       6.74139e-06       1.67861e-06       1.08266e-14       9.89326e-09       4.87855e-01       4.24360e-01       4.87855e-01      
 9.72000e-01       6.86094e-06       1.73982e-06       1.08363e-14       1.01540e-08       4.87855e-01       4.32025e-01       4.87855e-01      
 9.81000e-01       6.97978e-06       1.80210e-06       1.08457e-14       1.04182e-08       4.87855e-01       4.39709e-01       4.87855e-01      
 9.90000e-01       7.09791e-06       1.86545e-06       1.08549e-14       1.06857e-08       4.87855e-01       4.47411e-01       4.87855e-01      
 9.99000e-01       7.21530e-06       1.92986e-06       1.08638e-14       1.09567e-08       4.87855e-01       4.55132e-01       4.87855e-01      
 1.00800e+00       7.33193e-06       1.99532e-06       1.08725e-14       1.12311e-08       4.87855e-01       4.62871e-01       4.87855e-01      
 1.01700e+00       7.44781e-06       2.06183e-06       1.08810e-14       1.15091e-08       4.87855e-01       4.70628e-01       4.87855e-01      
 1.02600e+00       7.56291e-06       2.12937e-06       1.08893e-14       1.17908e-08       4.87855e-01       4.78402e-01       4.87855e-01      
 1.03500e+00       7.67722e-06       2.19795e-06       1.08973e-14       1.20760e-08       4.87855e-01       4.86195e-01       4.87855e-01      
 1.04400e+00       7.79072e-06       2.26756e-06       1.09052e-14       1.23650e-08       4.87855e-01       4.94006e-01       4.87855e-01      
 1.05300e+00       7.90340e-06       2.33818e-06       1.09129e-14       1.26577e-08       4.87855e-01       5.01834e-01       4.87855e-01      
 1.06200e+00       8.01525e-06       2.40981e-06       1.09204e-14       1.29543e-08       4.87855e-01       5.09681e-01       4.87855e-01      
 1.07100e+00       8.12624e-06       2.48245e-06       1.09278e-14       1.32548e-08       4.87855e-01       5.17545e-01       4.87855e-01      
 1.08000e+00       8.23638e-06       2.55608e-06       1.09350e-14       1.35593e-08       4.87855e-01       5.25426e-01       4.87855e-01      
 1.08900e+00       8.34564e-06       2.63070e-06       1.09421e-14       1.38678e-08       4.87855e-01       5.33326e-01       4.87855e-01      
 1.09800e+00       8.45402e-06       2.70629e-06       1.09490e-14       1.41804e-08       4.87855e-01       5.41244e-01       4.87855e-01      
 1.10700e+00       8.56149e-06       2.78286e-06       1.09557e-14       1.44972e-08       4.87855e-01       5.49179e-01       4.87855e-01      
 1.11600e+00       8.66805e-06       2.86039e-06       1.09623e-14       1.48183e-08       4.87855e-01       5.57132e-01       4.87855e-01      
 1.12500e+00       8.77368e-06       2.93888e-06       1.09688e-14       1.51437e-08       4.87855e-01       5.65103e-01       4.87855e-01      
 1.13400e+00       8.87837e-06       3.01831e-06       1.09752e-14       1.54736e-08       4.87855e-01       5.73092e-01       4.87855e-01      
 1.14300e+00       8.98211e-06       3.09868e-06       1.09815e-14       1.58080e-08       4.87855e-01       5.81099e-01       4.87855e-01      
 1.15200e+00       9.08488e-06       3.17998e-06       1.09876e-14       1.61471e-08       4.87855e-01       5.89125e-01       4.87855e-01      
 1.16100e+00       9.18668e-06       3.26221e-06       1.09936e-14       1.64909e-08       4.87855e-01       5.97168e-01       4.87855e-01      
 1.17000e+00       9.28749e-06       3.34534e-06       1.09995e-14       1.68395e-08       4.87855e-01       6.05229e-01       4.87855e-01      
 1.17900e+00       9.38730e-06       3.42937e-06       1.10053e-14       1.71931e-08       4.87855e-01       6.13309e-01       4.87855e-01      
 1.18800e+00       9.48610e-06       3.51430e-06       1.10110e-14       1.75517e-08       4.87855e-01       6.21407e-01       4.87855e-01      
 1.19700e+00       9.58389e-06       3.60012e-06       1.10167e-14       1.79154e-08       4.87855e-01       6.29524e-01       4.87855e-01      
 1.20600e+00       9.68064e-06       3.68681e-06       1.10222e-14       1.82845e-08       4.87855e-01       6.37659e-01       4.87855e-01      
 1.21500e+00       9.77635e-06       3.77436e-06       1.10276e-14       1.86589e-08       4.87855e-01       6.45812e-01       4.87855e-01      
