
dc (V)            getData("M0:gm    getData("M0:id    getData("M0:cg    getData("M0:gd    getData("M0:vt    getData("M0:vd    getData("M0:vt

 0.00000e+00       1.16371e-12       5.46319e-14       3.04143e-15       1.12179e-15       4.87193e-01       3.95241e-02       4.87193e-01      
 9.00000e-03       1.56023e-12       6.59177e-14       3.02908e-15       1.50422e-15       4.87193e-01       3.95241e-02       4.87193e-01      
 1.80000e-02       2.09173e-12       8.14478e-14       3.01726e-15       2.01693e-15       4.87193e-01       3.95242e-02       4.87193e-01      
 2.70000e-02       2.80411e-12       1.02625e-13       3.00598e-15       2.70428e-15       4.87193e-01       3.95242e-02       4.87193e-01      
 3.60000e-02       3.75881e-12       1.31333e-13       2.99530e-15       3.62567e-15       4.87193e-01       3.95243e-02       4.87193e-01      
 4.50000e-02       5.03809e-12       1.70099e-13       2.98527e-15       4.86071e-15       4.87193e-01       3.95244e-02       4.87193e-01      
 5.40000e-02       6.75203e-12       2.22308e-13       2.97593e-15       6.51598e-15       4.87193e-01       3.95245e-02       4.87193e-01      
 6.30000e-02       9.04791e-12       2.92500e-13       2.96738e-15       8.73422e-15       4.87193e-01       3.95247e-02       4.87193e-01      
 7.20000e-02       1.21227e-11       3.86752e-13       2.95970e-15       1.17065e-14       4.87193e-01       3.95250e-02       4.87193e-01      
 8.10000e-02       1.62396e-11       5.13199e-13       2.95303e-15       1.56884e-14       4.87193e-01       3.95253e-02       4.87193e-01      
 9.00000e-02       2.17503e-11       6.82727e-13       2.94751e-15       2.10220e-14       4.87193e-01       3.95257e-02       4.87193e-01      
 9.90000e-02       2.91241e-11       9.09892e-13       2.94332e-15       2.81645e-14       4.87193e-01       3.95263e-02       4.87193e-01      
 1.08000e-01       3.89870e-11       1.21415e-12       2.94067e-15       3.77268e-14       4.87193e-01       3.95271e-02       4.87193e-01      
 1.17000e-01       5.21732e-11       1.62148e-12       2.93984e-15       5.05248e-14       4.87193e-01       3.95281e-02       4.87193e-01      
 1.26000e-01       6.97908e-11       2.16656e-12       2.94106e-15       6.76471e-14       4.87193e-01       3.95296e-02       4.87193e-01      
 1.35000e-01       9.33114e-11       2.89559e-12       2.94469e-15       9.05438e-14       4.87193e-01       3.95314e-02       4.87193e-01      
 1.44000e-01       1.24692e-10       3.87012e-12       2.95126e-15       1.21146e-13       4.87193e-01       3.95340e-02       4.87193e-01      
 1.53000e-01       1.66520e-10       5.17201e-12       2.96129e-15       1.62022e-13       4.87193e-01       3.95373e-02       4.87193e-01      
 1.62000e-01       2.22217e-10       6.91004e-12       2.97537e-15       2.16580e-13       4.87193e-01       3.95418e-02       4.87193e-01      
 1.71000e-01       2.96289e-10       9.22842e-12       2.99419e-15       2.89341e-13       4.87193e-01       3.95478e-02       4.87193e-01      
 1.80000e-01       3.94657e-10       1.23181e-11       3.01850e-15       3.86279e-13       4.87193e-01       3.95558e-02       4.87193e-01      
 1.89000e-01       5.25072e-10       1.64310e-11       3.04915e-15       5.15278e-13       4.87193e-01       3.95664e-02       4.87193e-01      
 1.98000e-01       6.97640e-10       2.18994e-11       3.08708e-15       6.86703e-13       4.87193e-01       3.95805e-02       4.87193e-01      
 2.07000e-01       9.25469e-10       2.91592e-11       3.13326e-15       9.14140e-13       4.87193e-01       3.95992e-02       4.87193e-01      
 2.16000e-01       1.22547e-09       3.87809e-11       3.18871e-15       1.21532e-12       4.87193e-01       3.96240e-02       4.87193e-01      
 2.25000e-01       1.61933e-09       5.15079e-11       3.25449e-15       1.61326e-12       4.87193e-01       3.96567e-02       4.87193e-01      
 2.34000e-01       2.13464e-09       6.83047e-11       3.33161e-15       2.13767e-12       4.87193e-01       3.96998e-02       4.87193e-01      
 2.43000e-01       2.80620e-09       9.04155e-11       3.42104e-15       2.82667e-12       4.87193e-01       3.97564e-02       4.87193e-01      
 2.52000e-01       3.67751e-09       1.19436e-10       3.52367e-15       3.72870e-12       4.87193e-01       3.98304e-02       4.87193e-01      
 2.61000e-01       4.80237e-09       1.57398e-10       3.64021e-15       4.90481e-12       4.87193e-01       3.99269e-02       4.87193e-01      
 2.70000e-01       6.24649e-09       2.06871e-10       3.77126e-15       6.43108e-12       4.87193e-01       4.00520e-02       4.87193e-01      
 2.79000e-01       8.08910e-09       2.71076e-10       3.91716e-15       8.40110e-12       4.87193e-01       4.02132e-02       4.87193e-01      
 2.88000e-01       1.04243e-08       3.54012e-10       4.07806e-15       1.09283e-11       4.87193e-01       4.04196e-02       4.87193e-01      
 2.97000e-01       1.33623e-08       4.60599e-10       4.25384e-15       1.41479e-11       4.87193e-01       4.06821e-02       4.87193e-01      
 3.06000e-01       1.70294e-08       5.96819e-10       4.44413e-15       1.82180e-11       4.87193e-01       4.10129e-02       4.87193e-01      
 3.15000e-01       2.15683e-08       7.69869e-10       4.64832e-15       2.33192e-11       4.87193e-01       4.14262e-02       4.87193e-01      
 3.24000e-01       2.71364e-08       9.88296e-10       4.86552e-15       2.96532e-11       4.87193e-01       4.19374e-02       4.87193e-01      
 3.33000e-01       3.39033e-08       1.26212e-09       5.09463e-15       3.74385e-11       4.87193e-01       4.25625e-02       4.87193e-01      
 3.42000e-01       4.20469e-08       1.60293e-09       5.33432e-15       4.69050e-11       4.87193e-01       4.33182e-02       4.87193e-01      
 3.51000e-01       5.17486e-08       2.02395e-09       5.58312e-15       5.82864e-11       4.87193e-01       4.42206e-02       4.87193e-01      
 3.60000e-01       6.31868e-08       2.53999e-09       5.83937e-15       7.18113e-11       4.87193e-01       4.52847e-02       4.87193e-01      
 3.69000e-01       7.65315e-08       3.16748e-09       6.10136e-15       8.76945e-11       4.87193e-01       4.65234e-02       4.87193e-01      
 3.78000e-01       9.19391e-08       3.92429e-09       6.36728e-15       1.06130e-10       4.87193e-01       4.79472e-02       4.87193e-01      
 3.87000e-01       1.09550e-07       4.82964e-09       6.63533e-15       1.27283e-10       4.87193e-01       4.95638e-02       4.87193e-01      
 3.96000e-01       1.29491e-07       5.90394e-09       6.90374e-15       1.51291e-10       4.87193e-01       5.13780e-02       4.87193e-01      
 4.05000e-01       1.51876e-07       7.16869e-09       7.17080e-15       1.78259e-10       4.87193e-01       5.33919e-02       4.87193e-01      
 4.14000e-01       1.76818e-07       8.64639e-09       7.43491e-15       2.08270e-10       4.87193e-01       5.56055e-02       4.87193e-01      
 4.23000e-01       2.04430e-07       1.03606e-08       7.69460e-15       2.41381e-10       4.87193e-01       5.80169e-02       4.87193e-01      
 4.32000e-01       2.34838e-07       1.23358e-08       7.94855e-15       2.77637e-10       4.87193e-01       6.06236e-02       4.87193e-01      
 4.41000e-01       2.68179e-07       1.45979e-08       8.19563e-15       3.17071e-10       4.87193e-01       6.34222e-02       4.87193e-01      
 4.50000e-01       3.04604e-07       1.71739e-08       8.43486e-15       3.59715e-10       4.87193e-01       6.64093e-02       4.87193e-01      
 4.59000e-01       3.44272e-07       2.00923e-08       8.66545e-15       4.05598e-10       4.87193e-01       6.95819e-02       4.87193e-01      
 4.68000e-01       3.87348e-07       2.33831e-08       8.88679e-15       4.54751e-10       4.87193e-01       7.29371e-02       4.87193e-01      
 4.77000e-01       4.33988e-07       2.70775e-08       9.09843e-15       5.07206e-10       4.87193e-01       7.64721e-02       4.87193e-01      
 4.86000e-01       4.84339e-07       3.12083e-08       9.30010e-15       5.62997e-10       4.87193e-01       8.01848e-02       4.87193e-01      
 4.95000e-01       5.38522e-07       3.58096e-08       9.49164e-15       6.22157e-10       4.87193e-01       8.40728e-02       4.87193e-01      
 5.04000e-01       5.96631e-07       4.09163e-08       9.67303e-15       6.84718e-10       4.87193e-01       8.81340e-02       4.87193e-01      
 5.13000e-01       6.58728e-07       4.65639e-08       9.84436e-15       7.50706e-10       4.87193e-01       9.23657e-02       4.87193e-01      
 5.22000e-01       7.24832e-07       5.27885e-08       1.00058e-14       8.20143e-10       4.87193e-01       9.67653e-02       4.87193e-01      
 5.31000e-01       7.94928e-07       5.96262e-08       1.01577e-14       8.93044e-10       4.87193e-01       1.01330e-01       4.87193e-01      
 5.40000e-01       8.68960e-07       6.71126e-08       1.03002e-14       9.69414e-10       4.87193e-01       1.06055e-01       4.87193e-01      
 5.49000e-01       9.46832e-07       7.52827e-08       1.04338e-14       1.04925e-09       4.87193e-01       1.10938e-01       4.87193e-01      
 5.58000e-01       1.02842e-06       8.41705e-08       1.05589e-14       1.13254e-09       4.87193e-01       1.15973e-01       4.87193e-01      
 5.67000e-01       1.11356e-06       9.38089e-08       1.06758e-14       1.21927e-09       4.87193e-01       1.21157e-01       4.87193e-01      
 5.76000e-01       1.20208e-06       1.04229e-07       1.07850e-14       1.30940e-09       4.87193e-01       1.26483e-01       4.87193e-01      
 5.85000e-01       1.29377e-06       1.15460e-07       1.08870e-14       1.40290e-09       4.87193e-01       1.31946e-01       4.87193e-01      
 5.94000e-01       1.38840e-06       1.27530e-07       1.09822e-14       1.49973e-09       4.87193e-01       1.37540e-01       4.87193e-01      
 6.03000e-01       1.48577e-06       1.40464e-07       1.10710e-14       1.59984e-09       4.87193e-01       1.43259e-01       4.87193e-01      
 6.12000e-01       1.58563e-06       1.54285e-07       1.11539e-14       1.70318e-09       4.87193e-01       1.49098e-01       4.87193e-01      
 6.21000e-01       1.68775e-06       1.69016e-07       1.12311e-14       1.80970e-09       4.87193e-01       1.55049e-01       4.87193e-01      
 6.30000e-01       1.79190e-06       1.84675e-07       1.13032e-14       1.91933e-09       4.87193e-01       1.61108e-01       4.87193e-01      
 6.39000e-01       1.89786e-06       2.01280e-07       1.13705e-14       2.03201e-09       4.87193e-01       1.67268e-01       4.87193e-01      
 6.48000e-01       2.00542e-06       2.18846e-07       1.14334e-14       2.14770e-09       4.87193e-01       1.73523e-01       4.87193e-01      
 6.57000e-01       2.11437e-06       2.37386e-07       1.14921e-14       2.26633e-09       4.87193e-01       1.79868e-01       4.87193e-01      
 6.66000e-01       2.22453e-06       2.56913e-07       1.15470e-14       2.38784e-09       4.87193e-01       1.86297e-01       4.87193e-01      
 6.75000e-01       2.33571e-06       2.77435e-07       1.15983e-14       2.51218e-09       4.87193e-01       1.92806e-01       4.87193e-01      
 6.84000e-01       2.44776e-06       2.98962e-07       1.16464e-14       2.63930e-09       4.87193e-01       1.99388e-01       4.87193e-01      
 6.93000e-01       2.56052e-06       3.21501e-07       1.16914e-14       2.76915e-09       4.87193e-01       2.06040e-01       4.87193e-01      
 7.02000e-01       2.67385e-06       3.45057e-07       1.17337e-14       2.90168e-09       4.87193e-01       2.12757e-01       4.87193e-01      
 7.11000e-01       2.78764e-06       3.69635e-07       1.17735e-14       3.03684e-09       4.87193e-01       2.19535e-01       4.87193e-01      
 7.20000e-01       2.90177e-06       3.95238e-07       1.18108e-14       3.17460e-09       4.87193e-01       2.26371e-01       4.87193e-01      
 7.29000e-01       3.01615e-06       4.21870e-07       1.18460e-14       3.31492e-09       4.87193e-01       2.33260e-01       4.87193e-01      
 7.38000e-01       3.13068e-06       4.49532e-07       1.18791e-14       3.45776e-09       4.87193e-01       2.40199e-01       4.87193e-01      
 7.47000e-01       3.24528e-06       4.78225e-07       1.19104e-14       3.60310e-09       4.87193e-01       2.47186e-01       4.87193e-01      
 7.56000e-01       3.35989e-06       5.07950e-07       1.19399e-14       3.75091e-09       4.87193e-01       2.54217e-01       4.87193e-01      
 7.65000e-01       3.47444e-06       5.38705e-07       1.19679e-14       3.90117e-09       4.87193e-01       2.61290e-01       4.87193e-01      
 7.74000e-01       3.58887e-06       5.70491e-07       1.19944e-14       4.05385e-09       4.87193e-01       2.68403e-01       4.87193e-01      
 7.83000e-01       3.70315e-06       6.03306e-07       1.20196e-14       4.20894e-09       4.87193e-01       2.75553e-01       4.87193e-01      
 7.92000e-01       3.81722e-06       6.37148e-07       1.20435e-14       4.36643e-09       4.87193e-01       2.82739e-01       4.87193e-01      
 8.01000e-01       3.93104e-06       6.72016e-07       1.20662e-14       4.52630e-09       4.87193e-01       2.89958e-01       4.87193e-01      
 8.10000e-01       4.04459e-06       7.07907e-07       1.20878e-14       4.68855e-09       4.87193e-01       2.97209e-01       4.87193e-01      
 8.19000e-01       4.15783e-06       7.44818e-07       1.21085e-14       4.85318e-09       4.87193e-01       3.04491e-01       4.87193e-01      
 8.28000e-01       4.27073e-06       7.82747e-07       1.21282e-14       5.02018e-09       4.87193e-01       3.11802e-01       4.87193e-01      
 8.37000e-01       4.38327e-06       8.21691e-07       1.21471e-14       5.18955e-09       4.87193e-01       3.19140e-01       4.87193e-01      
 8.46000e-01       4.49543e-06       8.61645e-07       1.21651e-14       5.36130e-09       4.87193e-01       3.26506e-01       4.87193e-01      
 8.55000e-01       4.60719e-06       9.02607e-07       1.21825e-14       5.53543e-09       4.87193e-01       3.33897e-01       4.87193e-01      
 8.64000e-01       4.71853e-06       9.44572e-07       1.21991e-14       5.71195e-09       4.87193e-01       3.41313e-01       4.87193e-01      
 8.73000e-01       4.82942e-06       9.87538e-07       1.22151e-14       5.89087e-09       4.87193e-01       3.48753e-01       4.87193e-01      
 8.82000e-01       4.93986e-06       1.03150e-06       1.22304e-14       6.07220e-09       4.87193e-01       3.56216e-01       4.87193e-01      
 8.91000e-01       5.04983e-06       1.07645e-06       1.22452e-14       6.25596e-09       4.87193e-01       3.63702e-01       4.87193e-01      
 9.00000e-01       5.15932e-06       1.12239e-06       1.22595e-14       6.44217e-09       4.87193e-01       3.71210e-01       4.87193e-01      
 9.09000e-01       5.26830e-06       1.16932e-06       1.22733e-14       6.63083e-09       4.87193e-01       3.78739e-01       4.87193e-01      
 9.18000e-01       5.37677e-06       1.21722e-06       1.22866e-14       6.82198e-09       4.87193e-01       3.86290e-01       4.87193e-01      
 9.27000e-01       5.48472e-06       1.26610e-06       1.22995e-14       7.01564e-09       4.87193e-01       3.93861e-01       4.87193e-01      
 9.36000e-01       5.59212e-06       1.31594e-06       1.23120e-14       7.21183e-09       4.87193e-01       4.01452e-01       4.87193e-01      
 9.45000e-01       5.69897e-06       1.36675e-06       1.23240e-14       7.41057e-09       4.87193e-01       4.09063e-01       4.87193e-01      
 9.54000e-01       5.80525e-06       1.41852e-06       1.23358e-14       7.61190e-09       4.87193e-01       4.16694e-01       4.87193e-01      
 9.63000e-01       5.91095e-06       1.47124e-06       1.23471e-14       7.81584e-09       4.87193e-01       4.24345e-01       4.87193e-01      
 9.72000e-01       6.01605e-06       1.52491e-06       1.23582e-14       8.02243e-09       4.87193e-01       4.32014e-01       4.87193e-01      
 9.81000e-01       6.12055e-06       1.57952e-06       1.23689e-14       8.23170e-09       4.87193e-01       4.39703e-01       4.87193e-01      
 9.90000e-01       6.22444e-06       1.63508e-06       1.23794e-14       8.44369e-09       4.87193e-01       4.47410e-01       4.87193e-01      
 9.99000e-01       6.32769e-06       1.69156e-06       1.23895e-14       8.65843e-09       4.87193e-01       4.55136e-01       4.87193e-01      
 1.00800e+00       6.43030e-06       1.74897e-06       1.23994e-14       8.87596e-09       4.87193e-01       4.62881e-01       4.87193e-01      
 1.01700e+00       6.53224e-06       1.80730e-06       1.24091e-14       9.09632e-09       4.87193e-01       4.70644e-01       4.87193e-01      
 1.02600e+00       6.63352e-06       1.86654e-06       1.24185e-14       9.31957e-09       4.87193e-01       4.78426e-01       4.87193e-01      
 1.03500e+00       6.73412e-06       1.92670e-06       1.24277e-14       9.54573e-09       4.87193e-01       4.86226e-01       4.87193e-01      
 1.04400e+00       6.83402e-06       1.98775e-06       1.24367e-14       9.77487e-09       4.87193e-01       4.94044e-01       4.87193e-01      
 1.05300e+00       6.93322e-06       2.04971e-06       1.24454e-14       1.00070e-08       4.87193e-01       5.01880e-01       4.87193e-01      
 1.06200e+00       7.03169e-06       2.11255e-06       1.24540e-14       1.02422e-08       4.87193e-01       5.09735e-01       4.87193e-01      
 1.07100e+00       7.12944e-06       2.17627e-06       1.24624e-14       1.04806e-08       4.87193e-01       5.17608e-01       4.87193e-01      
 1.08000e+00       7.22643e-06       2.24087e-06       1.24706e-14       1.07221e-08       4.87193e-01       5.25499e-01       4.87193e-01      
 1.08900e+00       7.32267e-06       2.30634e-06       1.24786e-14       1.09669e-08       4.87193e-01       5.33408e-01       4.87193e-01      
 1.09800e+00       7.41814e-06       2.37267e-06       1.24864e-14       1.12149e-08       4.87193e-01       5.41335e-01       4.87193e-01      
 1.10700e+00       7.51283e-06       2.43986e-06       1.24941e-14       1.14664e-08       4.87193e-01       5.49281e-01       4.87193e-01      
 1.11600e+00       7.60673e-06       2.50790e-06       1.25017e-14       1.17212e-08       4.87193e-01       5.57245e-01       4.87193e-01      
 1.12500e+00       7.69983e-06       2.57678e-06       1.25091e-14       1.19795e-08       4.87193e-01       5.65228e-01       4.87193e-01      
 1.13400e+00       7.79210e-06       2.64649e-06       1.25163e-14       1.22415e-08       4.87193e-01       5.73229e-01       4.87193e-01      
 1.14300e+00       7.88356e-06       2.71703e-06       1.25234e-14       1.25070e-08       4.87193e-01       5.81248e-01       4.87193e-01      
 1.15200e+00       7.97417e-06       2.78839e-06       1.25304e-14       1.27763e-08       4.87193e-01       5.89286e-01       4.87193e-01      
 1.16100e+00       8.06394e-06       2.86056e-06       1.25373e-14       1.30493e-08       4.87193e-01       5.97342e-01       4.87193e-01      
 1.17000e+00       8.15285e-06       2.93353e-06       1.25440e-14       1.33262e-08       4.87193e-01       6.05417e-01       4.87193e-01      
 1.17900e+00       8.24089e-06       3.00731e-06       1.25506e-14       1.36071e-08       4.87193e-01       6.13510e-01       4.87193e-01      
 1.18800e+00       8.32806e-06       3.08187e-06       1.25571e-14       1.38921e-08       4.87193e-01       6.21623e-01       4.87193e-01      
 1.19700e+00       8.41433e-06       3.15721e-06       1.25635e-14       1.41812e-08       4.87193e-01       6.29754e-01       4.87193e-01      
 1.20600e+00       8.49971e-06       3.23332e-06       1.25698e-14       1.44745e-08       4.87193e-01       6.37904e-01       4.87193e-01      
 1.21500e+00       8.58419e-06       3.31020e-06       1.25760e-14       1.47722e-08       4.87193e-01       6.46073e-01       4.87193e-01      
