
dc (V)            getData("M0:gm    getData("M0:id    getData("M0:cg    getData("M0:gd    getData("M0:vt    getData("M0:vd    getData("M0:vt

 0.00000e+00       1.45561e-12       6.36297e-14       2.43972e-15       1.70938e-15       4.88396e-01       3.97393e-02       4.88396e-01      
 9.00000e-03       1.95110e-12       7.79676e-14       2.42992e-15       2.29153e-15       4.88396e-01       3.97394e-02       4.88396e-01      
 1.80000e-02       2.61511e-12       9.75847e-14       2.42054e-15       3.07182e-15       4.88396e-01       3.97394e-02       4.88396e-01      
 2.70000e-02       3.50486e-12       1.24234e-13       2.41159e-15       4.11763e-15       4.88396e-01       3.97395e-02       4.88396e-01      
 3.60000e-02       4.69697e-12       1.60269e-13       2.40310e-15       5.51920e-15       4.88396e-01       3.97395e-02       4.88396e-01      
 4.50000e-02       6.29399e-12       2.08843e-13       2.39511e-15       7.39740e-15       4.88396e-01       3.97396e-02       4.88396e-01      
 5.40000e-02       8.43312e-12       2.74182e-13       2.38768e-15       9.91405e-15       4.88396e-01       3.97398e-02       4.88396e-01      
 6.30000e-02       1.12979e-11       3.61947e-13       2.38085e-15       1.32858e-14       4.88396e-01       3.97399e-02       4.88396e-01      
 7.20000e-02       1.51337e-11       4.79718e-13       2.37471e-15       1.78026e-14       4.88396e-01       3.97402e-02       4.88396e-01      
 8.10000e-02       2.02683e-11       6.37636e-13       2.36935e-15       2.38523e-14       4.88396e-01       3.97405e-02       4.88396e-01      
 9.00000e-02       2.71397e-11       8.49269e-13       2.36488e-15       3.19537e-14       4.88396e-01       3.97409e-02       4.88396e-01      
 9.90000e-02       3.63324e-11       1.13275e-12       2.36145e-15       4.28001e-14       4.88396e-01       3.97415e-02       4.88396e-01      
 1.08000e-01       4.86256e-11       1.51233e-12       2.35921e-15       5.73179e-14       4.88396e-01       3.97423e-02       4.88396e-01      
 1.17000e-01       6.50576e-11       2.02035e-12       2.35839e-15       7.67442e-14       4.88396e-01       3.97433e-02       4.88396e-01      
 1.26000e-01       8.70074e-11       2.70001e-12       2.35916e-15       1.02729e-13       4.88396e-01       3.97447e-02       4.88396e-01      
 1.35000e-01       1.16307e-10       3.60883e-12       2.36180e-15       1.37469e-13       4.88396e-01       3.97465e-02       4.88396e-01      
 1.44000e-01       1.55390e-10       4.82343e-12       2.36672e-15       1.83892e-13       4.88396e-01       3.97490e-02       4.88396e-01      
 1.53000e-01       2.07479e-10       6.44573e-12       2.37433e-15       2.45888e-13       4.88396e-01       3.97522e-02       4.88396e-01      
 1.62000e-01       2.76829e-10       8.61110e-12       2.38509e-15       3.28623e-13       4.88396e-01       3.97566e-02       4.88396e-01      
 1.71000e-01       3.69050e-10       1.14991e-11       2.39954e-15       4.38943e-13       4.88396e-01       3.97624e-02       4.88396e-01      
 1.80000e-01       4.91510e-10       1.53472e-11       2.41825e-15       5.85901e-13       4.88396e-01       3.97702e-02       4.88396e-01      
 1.89000e-01       6.53858e-10       2.04693e-11       2.44191e-15       7.81440e-13       4.88396e-01       3.97805e-02       4.88396e-01      
 1.98000e-01       8.68676e-10       2.72786e-11       2.47123e-15       1.04127e-12       4.88396e-01       3.97942e-02       4.88396e-01      
 2.07000e-01       1.15229e-09       3.63180e-11       2.50699e-15       1.38597e-12       4.88396e-01       3.98124e-02       4.88396e-01      
 2.16000e-01       1.52578e-09       4.82977e-11       2.55000e-15       1.84243e-12       4.88396e-01       3.98365e-02       4.88396e-01      
 2.25000e-01       2.01618e-09       6.41438e-11       2.60107e-15       2.44554e-12       4.88396e-01       3.98684e-02       4.88396e-01      
 2.34000e-01       2.65790e-09       8.50575e-11       2.66102e-15       3.24039e-12       4.88396e-01       3.99103e-02       4.88396e-01      
 2.43000e-01       3.49440e-09       1.12590e-10       2.73063e-15       4.28481e-12       4.88396e-01       3.99654e-02       4.88396e-01      
 2.52000e-01       4.58004e-09       1.48730e-10       2.81059e-15       5.65240e-12       4.88396e-01       4.00375e-02       4.88396e-01      
 2.61000e-01       5.98208e-09       1.96013e-10       2.90151e-15       7.43595e-12       4.88396e-01       4.01314e-02       4.88396e-01      
 2.70000e-01       7.78281e-09       2.57647e-10       3.00385e-15       9.75119e-12       4.88396e-01       4.02532e-02       4.88396e-01      
 2.79000e-01       1.00815e-08       3.37655e-10       3.11791e-15       1.27407e-11       4.88396e-01       4.04104e-02       4.88396e-01      
 2.88000e-01       1.29963e-08       4.41038e-10       3.24384e-15       1.65774e-11       4.88396e-01       4.06117e-02       4.88396e-01      
 2.97000e-01       1.66656e-08       5.73950e-10       3.38157e-15       2.14679e-11       4.88396e-01       4.08679e-02       4.88396e-01      
 3.06000e-01       2.12484e-08       7.43884e-10       3.53083e-15       2.76538e-11       4.88396e-01       4.11912e-02       4.88396e-01      
 3.15000e-01       2.69243e-08       9.59859e-10       3.69115e-15       3.54119e-11       4.88396e-01       4.15955e-02       4.88396e-01      
 3.24000e-01       3.38920e-08       1.23260e-09       3.86187e-15       4.50516e-11       4.88396e-01       4.20959e-02       4.88396e-01      
 3.33000e-01       4.23657e-08       1.57469e-09       4.04212e-15       5.69087e-11       4.88396e-01       4.27089e-02       4.88396e-01      
 3.42000e-01       5.25707e-08       2.00069e-09       4.23091e-15       7.13371e-11       4.88396e-01       4.34509e-02       4.88396e-01      
 3.51000e-01       6.47369e-08       2.52723e-09       4.42704e-15       8.86967e-11       4.88396e-01       4.43383e-02       4.88396e-01      
 3.60000e-01       7.90911e-08       3.17299e-09       4.62926e-15       1.09340e-10       4.88396e-01       4.53863e-02       4.88396e-01      
 3.69000e-01       9.58495e-08       3.95866e-09       4.83620e-15       1.33598e-10       4.88396e-01       4.66082e-02       4.88396e-01      
 3.78000e-01       1.15212e-07       4.90679e-09       5.04644e-15       1.61769e-10       4.88396e-01       4.80149e-02       4.88396e-01      
 3.87000e-01       1.37356e-07       6.04163e-09       5.25855e-15       1.94106e-10       4.88396e-01       4.96145e-02       4.88396e-01      
 3.96000e-01       1.62443e-07       7.38898e-09       5.47114e-15       2.30819e-10       4.88396e-01       5.14121e-02       4.88396e-01      
 4.05000e-01       1.90617e-07       8.97598e-09       5.68284e-15       2.72065e-10       4.88396e-01       5.34103e-02       4.88396e-01      
 4.14000e-01       2.22017e-07       1.08311e-08       5.89237e-15       3.17964e-10       4.88396e-01       5.56091e-02       4.88396e-01      
 4.23000e-01       2.56784e-07       1.29839e-08       6.09857e-15       3.68598e-10       4.88396e-01       5.80071e-02       4.88396e-01      
 4.32000e-01       2.95073e-07       1.54654e-08       6.30036e-15       4.24027e-10       4.88396e-01       6.06016e-02       4.88396e-01      
 4.41000e-01       3.37052e-07       1.83081e-08       6.49682e-15       4.84293e-10       4.88396e-01       6.33892e-02       4.88396e-01      
 4.50000e-01       3.82909e-07       2.15461e-08       6.68718e-15       5.49434e-10       4.88396e-01       6.63665e-02       4.88396e-01      
 4.59000e-01       4.32842e-07       2.52150e-08       6.87078e-15       6.19485e-10       4.88396e-01       6.95304e-02       4.88396e-01      
 4.68000e-01       4.87057e-07       2.93526e-08       7.04713e-15       6.94484e-10       4.88396e-01       7.28778e-02       4.88396e-01      
 4.77000e-01       5.45753e-07       3.39983e-08       7.21584e-15       7.74472e-10       4.88396e-01       7.64060e-02       4.88396e-01      
 4.86000e-01       6.09114e-07       3.91932e-08       7.37669e-15       8.59494e-10       4.88396e-01       8.01127e-02       4.88396e-01      
 4.95000e-01       6.77298e-07       4.49801e-08       7.52954e-15       9.49594e-10       4.88396e-01       8.39954e-02       4.88396e-01      
 5.04000e-01       7.50427e-07       5.14029e-08       7.67435e-15       1.04482e-09       4.88396e-01       8.80519e-02       4.88396e-01      
 5.13000e-01       8.28580e-07       5.85066e-08       7.81119e-15       1.14519e-09       4.88396e-01       9.22796e-02       4.88396e-01      
 5.22000e-01       9.11790e-07       6.63365e-08       7.94020e-15       1.25076e-09       4.88396e-01       9.66759e-02       4.88396e-01      
 5.31000e-01       1.00004e-06       7.49382e-08       8.06156e-15       1.36154e-09       4.88396e-01       1.01238e-01       4.88396e-01      
 5.40000e-01       1.09326e-06       8.43566e-08       8.17552e-15       1.47753e-09       4.88396e-01       1.05961e-01       4.88396e-01      
 5.49000e-01       1.19134e-06       9.46362e-08       8.28236e-15       1.59873e-09       4.88396e-01       1.10843e-01       4.88396e-01      
 5.58000e-01       1.29412e-06       1.05820e-07       8.38240e-15       1.72512e-09       4.88396e-01       1.15878e-01       4.88396e-01      
 5.67000e-01       1.40140e-06       1.17949e-07       8.47596e-15       1.85668e-09       4.88396e-01       1.21061e-01       4.88396e-01      
 5.76000e-01       1.51296e-06       1.31063e-07       8.56338e-15       1.99335e-09       4.88396e-01       1.26388e-01       4.88396e-01      
 5.85000e-01       1.62853e-06       1.45199e-07       8.64502e-15       2.13509e-09       4.88396e-01       1.31853e-01       4.88396e-01      
 5.94000e-01       1.74784e-06       1.60393e-07       8.72122e-15       2.28183e-09       4.88396e-01       1.37449e-01       4.88396e-01      
 6.03000e-01       1.87061e-06       1.76677e-07       8.79231e-15       2.43350e-09       4.88396e-01       1.43172e-01       4.88396e-01      
 6.12000e-01       1.99654e-06       1.94079e-07       8.85863e-15       2.59002e-09       4.88396e-01       1.49014e-01       4.88396e-01      
 6.21000e-01       2.12534e-06       2.12629e-07       8.92050e-15       2.75130e-09       4.88396e-01       1.54970e-01       4.88396e-01      
 6.30000e-01       2.25671e-06       2.32349e-07       8.97823e-15       2.91727e-09       4.88396e-01       1.61034e-01       4.88396e-01      
 6.39000e-01       2.39036e-06       2.53262e-07       9.03211e-15       3.08783e-09       4.88396e-01       1.67199e-01       4.88396e-01      
 6.48000e-01       2.52604e-06       2.75387e-07       9.08241e-15       3.26289e-09       4.88396e-01       1.73460e-01       4.88396e-01      
 6.57000e-01       2.66347e-06       2.98741e-07       9.12942e-15       3.44237e-09       4.88396e-01       1.79811e-01       4.88396e-01      
 6.66000e-01       2.80242e-06       3.23339e-07       9.17335e-15       3.62618e-09       4.88396e-01       1.86247e-01       4.88396e-01      
 6.75000e-01       2.94265e-06       3.49194e-07       9.21446e-15       3.81423e-09       4.88396e-01       1.92762e-01       4.88396e-01      
 6.84000e-01       3.08397e-06       3.76315e-07       9.25295e-15       4.00645e-09       4.88396e-01       1.99352e-01       4.88396e-01      
 6.93000e-01       3.22617e-06       4.04713e-07       9.28902e-15       4.20276e-09       4.88396e-01       2.06011e-01       4.88396e-01      
 7.02000e-01       3.36908e-06       4.34393e-07       9.32287e-15       4.40308e-09       4.88396e-01       2.12735e-01       4.88396e-01      
 7.11000e-01       3.51255e-06       4.65362e-07       9.35465e-15       4.60736e-09       4.88396e-01       2.19521e-01       4.88396e-01      
 7.20000e-01       3.65642e-06       4.97624e-07       9.38453e-15       4.81552e-09       4.88396e-01       2.26363e-01       4.88396e-01      
 7.29000e-01       3.80058e-06       5.31182e-07       9.41266e-15       5.02752e-09       4.88396e-01       2.33260e-01       4.88396e-01      
 7.38000e-01       3.94491e-06       5.66039e-07       9.43917e-15       5.24330e-09       4.88396e-01       2.40206e-01       4.88396e-01      
 7.47000e-01       4.08930e-06       6.02194e-07       9.46419e-15       5.46281e-09       4.88396e-01       2.47200e-01       4.88396e-01      
 7.56000e-01       4.23367e-06       6.39649e-07       9.48783e-15       5.68601e-09       4.88396e-01       2.54237e-01       4.88396e-01      
 7.65000e-01       4.37793e-06       6.78403e-07       9.51020e-15       5.91287e-09       4.88396e-01       2.61317e-01       4.88396e-01      
 7.74000e-01       4.52202e-06       7.18454e-07       9.53139e-15       6.14335e-09       4.88396e-01       2.68435e-01       4.88396e-01      
 7.83000e-01       4.66588e-06       7.59800e-07       9.55149e-15       6.37744e-09       4.88396e-01       2.75591e-01       4.88396e-01      
 7.92000e-01       4.80944e-06       8.02440e-07       9.57058e-15       6.61510e-09       4.88396e-01       2.82782e-01       4.88396e-01      
 8.01000e-01       4.95266e-06       8.46371e-07       9.58874e-15       6.85632e-09       4.88396e-01       2.90006e-01       4.88396e-01      
 8.10000e-01       5.09550e-06       8.91588e-07       9.60604e-15       7.10109e-09       4.88396e-01       2.97261e-01       4.88396e-01      
 8.19000e-01       5.23791e-06       9.38089e-07       9.62254e-15       7.34940e-09       4.88396e-01       3.04546e-01       4.88396e-01      
 8.28000e-01       5.37987e-06       9.85869e-07       9.63829e-15       7.60125e-09       4.88396e-01       3.11860e-01       4.88396e-01      
 8.37000e-01       5.52133e-06       1.03493e-06       9.65336e-15       7.85663e-09       4.88396e-01       3.19201e-01       4.88396e-01      
 8.46000e-01       5.66228e-06       1.08525e-06       9.66778e-15       8.11556e-09       4.88396e-01       3.26568e-01       4.88396e-01      
 8.55000e-01       5.80269e-06       1.13684e-06       9.68161e-15       8.37802e-09       4.88396e-01       3.33960e-01       4.88396e-01      
 8.64000e-01       5.94253e-06       1.18970e-06       9.69488e-15       8.64405e-09       4.88396e-01       3.41377e-01       4.88396e-01      
 8.73000e-01       6.08178e-06       1.24381e-06       9.70763e-15       8.91365e-09       4.88396e-01       3.48816e-01       4.88396e-01      
 8.82000e-01       6.22042e-06       1.29917e-06       9.71990e-15       9.18683e-09       4.88396e-01       3.56279e-01       4.88396e-01      
 8.91000e-01       6.35844e-06       1.35577e-06       9.73171e-15       9.46363e-09       4.88396e-01       3.63763e-01       4.88396e-01      
 9.00000e-01       6.49581e-06       1.41361e-06       9.74310e-15       9.74405e-09       4.88396e-01       3.71269e-01       4.88396e-01      
 9.09000e-01       6.63251e-06       1.47269e-06       9.75409e-15       1.00281e-08       4.88396e-01       3.78796e-01       4.88396e-01      
 9.18000e-01       6.76854e-06       1.53300e-06       9.76471e-15       1.03159e-08       4.88396e-01       3.86343e-01       4.88396e-01      
 9.27000e-01       6.90387e-06       1.59452e-06       9.77499e-15       1.06074e-08       4.88396e-01       3.93910e-01       4.88396e-01      
 9.36000e-01       7.03848e-06       1.65726e-06       9.78493e-15       1.09027e-08       4.88396e-01       4.01496e-01       4.88396e-01      
 9.45000e-01       7.17236e-06       1.72121e-06       9.79456e-15       1.12017e-08       4.88396e-01       4.09102e-01       4.88396e-01      
 9.54000e-01       7.30550e-06       1.78636e-06       9.80390e-15       1.15046e-08       4.88396e-01       4.16726e-01       4.88396e-01      
 9.63000e-01       7.43787e-06       1.85270e-06       9.81297e-15       1.18113e-08       4.88396e-01       4.24369e-01       4.88396e-01      
 9.72000e-01       7.56947e-06       1.92023e-06       9.82177e-15       1.21220e-08       4.88396e-01       4.32031e-01       4.88396e-01      
 9.81000e-01       7.70027e-06       1.98895e-06       9.83033e-15       1.24366e-08       4.88396e-01       4.39710e-01       4.88396e-01      
 9.90000e-01       7.83027e-06       2.05883e-06       9.83865e-15       1.27553e-08       4.88396e-01       4.47408e-01       4.88396e-01      
 9.99000e-01       7.95944e-06       2.12988e-06       9.84676e-15       1.30780e-08       4.88396e-01       4.55124e-01       4.88396e-01      
 1.00800e+00       8.08777e-06       2.20210e-06       9.85465e-15       1.34049e-08       4.88396e-01       4.62858e-01       4.88396e-01      
 1.01700e+00       8.21525e-06       2.27546e-06       9.86235e-15       1.37360e-08       4.88396e-01       4.70609e-01       4.88396e-01      
 1.02600e+00       8.34185e-06       2.34996e-06       9.86985e-15       1.40713e-08       4.88396e-01       4.78378e-01       4.88396e-01      
 1.03500e+00       8.46757e-06       2.42560e-06       9.87717e-15       1.44109e-08       4.88396e-01       4.86164e-01       4.88396e-01      
 1.04400e+00       8.59239e-06       2.50237e-06       9.88432e-15       1.47550e-08       4.88396e-01       4.93968e-01       4.88396e-01      
 1.05300e+00       8.71629e-06       2.58026e-06       9.89131e-15       1.51035e-08       4.88396e-01       5.01789e-01       4.88396e-01      
 1.06200e+00       8.83926e-06       2.65926e-06       9.89814e-15       1.54565e-08       4.88396e-01       5.09628e-01       4.88396e-01      
 1.07100e+00       8.96128e-06       2.73936e-06       9.90482e-15       1.58141e-08       4.88396e-01       5.17484e-01       4.88396e-01      
 1.08000e+00       9.08234e-06       2.82056e-06       9.91135e-15       1.61764e-08       4.88396e-01       5.25358e-01       4.88396e-01      
 1.08900e+00       9.20243e-06       2.90284e-06       9.91775e-15       1.65435e-08       4.88396e-01       5.33249e-01       4.88396e-01      
 1.09800e+00       9.32152e-06       2.98619e-06       9.92401e-15       1.69155e-08       4.88396e-01       5.41158e-01       4.88396e-01      
 1.10700e+00       9.43961e-06       3.07062e-06       9.93014e-15       1.72924e-08       4.88396e-01       5.49084e-01       4.88396e-01      
 1.11600e+00       9.55668e-06       3.15610e-06       9.93616e-15       1.76743e-08       4.88396e-01       5.57028e-01       4.88396e-01      
 1.12500e+00       9.67271e-06       3.24263e-06       9.94205e-15       1.80614e-08       4.88396e-01       5.64989e-01       4.88396e-01      
 1.13400e+00       9.78770e-06       3.33020e-06       9.94784e-15       1.84538e-08       4.88396e-01       5.72968e-01       4.88396e-01      
 1.14300e+00       9.90163e-06       3.41880e-06       9.95351e-15       1.88515e-08       4.88396e-01       5.80964e-01       4.88396e-01      
 1.15200e+00       1.00145e-05       3.50842e-06       9.95908e-15       1.92546e-08       4.88396e-01       5.88978e-01       4.88396e-01      
 1.16100e+00       1.01263e-05       3.59905e-06       9.96454e-15       1.96634e-08       4.88396e-01       5.97010e-01       4.88396e-01      
 1.17000e+00       1.02369e-05       3.69069e-06       9.96991e-15       2.00778e-08       4.88396e-01       6.05060e-01       4.88396e-01      
 1.17900e+00       1.03465e-05       3.78331e-06       9.97519e-15       2.04981e-08       4.88396e-01       6.13128e-01       4.88396e-01      
 1.18800e+00       1.04549e-05       3.87692e-06       9.98037e-15       2.09243e-08       4.88396e-01       6.21214e-01       4.88396e-01      
 1.19700e+00       1.05622e-05       3.97150e-06       9.98546e-15       2.13566e-08       4.88396e-01       6.29318e-01       4.88396e-01      
 1.20600e+00       1.06684e-05       4.06703e-06       9.99047e-15       2.17951e-08       4.88396e-01       6.37439e-01       4.88396e-01      
 1.21500e+00       1.07734e-05       4.16352e-06       9.99540e-15       2.22399e-08       4.88396e-01       6.45580e-01       4.88396e-01      
