
dc (V)            getData("M0:gm    getData("M0:id    getData("M0:cg    getData("M0:gd    getData("M0:vt    getData("M0:vd    getData("M0:vt

 0.00000e+00       1.13140e-12       5.36371e-14       3.12739e-15       1.06390e-15       4.87056e-01       3.95002e-02       4.87056e-01      
 9.00000e-03       1.51696e-12       6.45851e-14       3.11468e-15       1.42663e-15       4.87056e-01       3.95002e-02       4.87056e-01      
 1.80000e-02       2.03378e-12       7.96627e-14       3.10250e-15       1.91295e-15       4.87056e-01       3.95003e-02       4.87056e-01      
 2.70000e-02       2.72650e-12       1.00234e-13       3.09090e-15       2.56493e-15       4.87056e-01       3.95003e-02       4.87056e-01      
 3.60000e-02       3.65487e-12       1.28131e-13       3.07991e-15       3.43895e-15       4.87056e-01       3.95004e-02       4.87056e-01      
 4.50000e-02       4.89891e-12       1.65809e-13       3.06958e-15       4.61051e-15       4.87056e-01       3.95005e-02       4.87056e-01      
 5.40000e-02       6.56568e-12       2.16564e-13       3.05997e-15       6.18075e-15       4.87056e-01       3.95007e-02       4.87056e-01      
 6.30000e-02       8.79844e-12       2.84807e-13       3.05117e-15       8.28509e-15       4.87056e-01       3.95008e-02       4.87056e-01      
 7.20000e-02       1.17887e-11       3.76451e-13       3.04328e-15       1.11048e-14       4.87056e-01       3.95011e-02       4.87056e-01      
 8.10000e-02       1.57927e-11       4.99407e-13       3.03642e-15       1.48825e-14       4.87056e-01       3.95014e-02       4.87056e-01      
 9.00000e-02       2.11522e-11       6.64264e-13       3.03075e-15       1.99426e-14       4.87056e-01       3.95019e-02       4.87056e-01      
 9.90000e-02       2.83240e-11       8.85177e-13       3.02645e-15       2.67190e-14       4.87056e-01       3.95024e-02       4.87056e-01      
 1.08000e-01       3.79169e-11       1.18107e-12       3.02375e-15       3.57915e-14       4.87056e-01       3.95032e-02       4.87056e-01      
 1.17000e-01       5.07424e-11       1.57722e-12       3.02292e-15       4.79342e-14       4.87056e-01       3.95043e-02       4.87056e-01      
 1.26000e-01       6.78783e-11       2.10735e-12       3.02420e-15       6.41803e-14       4.87056e-01       3.95057e-02       4.87056e-01      
 1.35000e-01       9.07564e-11       2.81641e-12       3.02797e-15       8.59056e-14       4.87056e-01       3.95076e-02       4.87056e-01      
 1.44000e-01       1.21280e-10       3.76426e-12       3.03478e-15       1.14943e-13       4.87056e-01       3.95101e-02       4.87056e-01      
 1.53000e-01       1.61967e-10       5.03055e-12       3.04515e-15       1.53729e-13       4.87056e-01       3.95135e-02       4.87056e-01      
 1.62000e-01       2.16145e-10       6.72106e-12       3.05971e-15       2.05500e-13       4.87056e-01       3.95180e-02       4.87056e-01      
 1.71000e-01       2.88197e-10       8.97611e-12       3.07916e-15       2.74543e-13       4.87056e-01       3.95240e-02       4.87056e-01      
 1.80000e-01       3.83885e-10       1.19814e-11       3.10427e-15       3.66531e-13       4.87056e-01       3.95320e-02       4.87056e-01      
 1.89000e-01       5.10746e-10       1.59821e-11       3.13593e-15       4.88943e-13       4.87056e-01       3.95427e-02       4.87056e-01      
 1.98000e-01       6.78611e-10       2.13013e-11       3.17509e-15       6.51616e-13       4.87056e-01       3.95568e-02       4.87056e-01      
 2.07000e-01       9.00231e-10       2.83631e-11       3.22276e-15       8.67444e-13       4.87056e-01       3.95756e-02       4.87056e-01      
 2.16000e-01       1.19206e-09       3.77224e-11       3.28000e-15       1.15325e-12       4.87056e-01       3.96004e-02       4.87056e-01      
 2.25000e-01       1.57517e-09       5.01024e-11       3.34789e-15       1.53087e-12       4.87056e-01       3.96332e-02       4.87056e-01      
 2.34000e-01       2.07641e-09       6.64411e-11       3.42747e-15       2.02851e-12       4.87056e-01       3.96765e-02       4.87056e-01      
 2.43000e-01       2.72962e-09       8.79486e-11       3.51974e-15       2.68232e-12       4.87056e-01       3.97332e-02       4.87056e-01      
 2.52000e-01       3.57710e-09       1.16177e-10       3.62561e-15       3.53827e-12       4.87056e-01       3.98075e-02       4.87056e-01      
 2.61000e-01       4.67114e-09       1.53102e-10       3.74582e-15       4.65428e-12       4.87056e-01       3.99043e-02       4.87056e-01      
 2.70000e-01       6.07563e-09       2.01223e-10       3.88097e-15       6.10249e-12       4.87056e-01       4.00297e-02       4.87056e-01      
 2.79000e-01       7.86757e-09       2.63670e-10       4.03143e-15       7.97167e-12       4.87056e-01       4.01914e-02       4.87056e-01      
 2.88000e-01       1.01384e-08       3.44333e-10       4.19733e-15       1.03694e-11       4.87056e-01       4.03984e-02       4.87056e-01      
 2.97000e-01       1.29952e-08       4.47994e-10       4.37856e-15       1.34239e-11       4.87056e-01       4.06616e-02       4.87056e-01      
 3.06000e-01       1.65608e-08       5.80470e-10       4.57472e-15       1.72850e-11       4.87056e-01       4.09933e-02       4.87056e-01      
 3.15000e-01       2.09737e-08       7.48753e-10       4.78518e-15       2.21240e-11       4.87056e-01       4.14077e-02       4.87056e-01      
 3.24000e-01       2.63867e-08       9.61151e-10       5.00903e-15       2.81318e-11       4.87056e-01       4.19200e-02       4.87056e-01      
 3.33000e-01       3.29646e-08       1.22740e-09       5.24512e-15       3.55158e-11       4.87056e-01       4.25466e-02       4.87056e-01      
 3.42000e-01       4.08803e-08       1.55877e-09       5.49209e-15       4.44935e-11       4.87056e-01       4.33039e-02       4.87056e-01      
 3.51000e-01       5.03095e-08       1.96809e-09       5.74841e-15       5.52865e-11       4.87056e-01       4.42080e-02       4.87056e-01      
 3.60000e-01       6.14256e-08       2.46977e-09       6.01239e-15       6.81112e-11       4.87056e-01       4.52739e-02       4.87056e-01      
 3.69000e-01       7.43934e-08       3.07974e-09       6.28224e-15       8.31714e-11       4.87056e-01       4.65145e-02       4.87056e-01      
 3.78000e-01       8.93647e-08       3.81538e-09       6.55611e-15       1.00650e-10       4.87056e-01       4.79403e-02       4.87056e-01      
 3.87000e-01       1.06476e-07       4.69535e-09       6.83215e-15       1.20706e-10       4.87056e-01       4.95589e-02       4.87056e-01      
 3.96000e-01       1.25849e-07       5.73947e-09       7.10853e-15       1.43467e-10       4.87056e-01       5.13750e-02       4.87056e-01      
 4.05000e-01       1.47597e-07       6.96861e-09       7.38350e-15       1.69036e-10       4.87056e-01       5.33907e-02       4.87056e-01      
 4.14000e-01       1.71827e-07       8.40464e-09       7.65540e-15       1.97489e-10       4.87056e-01       5.56059e-02       4.87056e-01      
 4.23000e-01       1.98651e-07       1.00704e-08       7.92273e-15       2.28883e-10       4.87056e-01       5.80189e-02       4.87056e-01      
 4.32000e-01       2.28192e-07       1.19898e-08       8.18414e-15       2.63259e-10       4.87056e-01       6.06269e-02       4.87056e-01      
 4.41000e-01       2.60581e-07       1.41878e-08       8.43844e-15       3.00652e-10       4.87056e-01       6.34268e-02       4.87056e-01      
 4.50000e-01       2.95967e-07       1.66908e-08       8.68464e-15       3.41092e-10       4.87056e-01       6.64151e-02       4.87056e-01      
 4.59000e-01       3.34504e-07       1.95264e-08       8.92194e-15       3.84606e-10       4.87056e-01       6.95887e-02       4.87056e-01      
 4.68000e-01       3.76352e-07       2.27238e-08       9.14970e-15       4.31225e-10       4.87056e-01       7.29447e-02       4.87056e-01      
 4.77000e-01       4.21664e-07       2.63133e-08       9.36748e-15       4.80980e-10       4.87056e-01       7.64806e-02       4.87056e-01      
 4.86000e-01       4.70581e-07       3.03268e-08       9.57497e-15       5.33904e-10       4.87056e-01       8.01940e-02       4.87056e-01      
 4.95000e-01       5.23220e-07       3.47974e-08       9.77203e-15       5.90029e-10       4.87056e-01       8.40826e-02       4.87056e-01      
 5.04000e-01       5.79674e-07       3.97589e-08       9.95864e-15       6.49385e-10       4.87056e-01       8.81443e-02       4.87056e-01      
 5.13000e-01       6.40001e-07       4.52460e-08       1.01349e-14       7.11997e-10       4.87056e-01       9.23765e-02       4.87056e-01      
 5.22000e-01       7.04220e-07       5.12937e-08       1.03010e-14       7.77887e-10       4.87056e-01       9.67765e-02       4.87056e-01      
 5.31000e-01       7.72316e-07       5.79368e-08       1.04572e-14       8.47069e-10       4.87056e-01       1.01341e-01       4.87056e-01      
 5.40000e-01       8.44232e-07       6.52102e-08       1.06038e-14       9.19547e-10       4.87056e-01       1.06067e-01       4.87056e-01      
 5.49000e-01       9.19879e-07       7.31478e-08       1.07412e-14       9.95320e-10       4.87056e-01       1.10950e-01       4.87056e-01      
 5.58000e-01       9.99131e-07       8.17826e-08       1.08698e-14       1.07438e-09       4.87056e-01       1.15985e-01       4.87056e-01      
 5.67000e-01       1.08184e-06       9.11464e-08       1.09901e-14       1.15670e-09       4.87056e-01       1.21169e-01       4.87056e-01      
 5.76000e-01       1.16782e-06       1.01269e-07       1.11025e-14       1.24225e-09       4.87056e-01       1.26495e-01       4.87056e-01      
 5.85000e-01       1.25687e-06       1.12180e-07       1.12074e-14       1.33102e-09       4.87056e-01       1.31957e-01       4.87056e-01      
 5.94000e-01       1.34880e-06       1.23906e-07       1.13053e-14       1.42294e-09       4.87056e-01       1.37551e-01       4.87056e-01      
 6.03000e-01       1.44337e-06       1.36471e-07       1.13966e-14       1.51798e-09       4.87056e-01       1.43270e-01       4.87056e-01      
 6.12000e-01       1.54036e-06       1.49898e-07       1.14818e-14       1.61609e-09       4.87056e-01       1.49108e-01       4.87056e-01      
 6.21000e-01       1.63954e-06       1.64208e-07       1.15613e-14       1.71722e-09       4.87056e-01       1.55060e-01       4.87056e-01      
 6.30000e-01       1.74070e-06       1.79420e-07       1.16354e-14       1.82131e-09       4.87056e-01       1.61118e-01       4.87056e-01      
 6.39000e-01       1.84361e-06       1.95550e-07       1.17046e-14       1.92830e-09       4.87056e-01       1.67277e-01       4.87056e-01      
 6.48000e-01       1.94808e-06       2.12614e-07       1.17693e-14       2.03815e-09       4.87056e-01       1.73532e-01       4.87056e-01      
 6.57000e-01       2.05390e-06       2.30624e-07       1.18296e-14       2.15079e-09       4.87056e-01       1.79876e-01       4.87056e-01      
 6.66000e-01       2.16088e-06       2.49591e-07       1.18861e-14       2.26618e-09       4.87056e-01       1.86304e-01       4.87056e-01      
 6.75000e-01       2.26887e-06       2.69527e-07       1.19389e-14       2.38425e-09       4.87056e-01       1.92812e-01       4.87056e-01      
 6.84000e-01       2.37769e-06       2.90437e-07       1.19883e-14       2.50496e-09       4.87056e-01       1.99394e-01       4.87056e-01      
 6.93000e-01       2.48721e-06       3.12331e-07       1.20347e-14       2.62827e-09       4.87056e-01       2.06045e-01       4.87056e-01      
 7.02000e-01       2.59729e-06       3.35212e-07       1.20782e-14       2.75413e-09       4.87056e-01       2.12761e-01       4.87056e-01      
 7.11000e-01       2.70782e-06       3.59087e-07       1.21190e-14       2.88249e-09       4.87056e-01       2.19538e-01       4.87056e-01      
 7.20000e-01       2.81867e-06       3.83957e-07       1.21574e-14       3.01332e-09       4.87056e-01       2.26373e-01       4.87056e-01      
 7.29000e-01       2.92977e-06       4.09827e-07       1.21936e-14       3.14658e-09       4.87056e-01       2.33261e-01       4.87056e-01      
 7.38000e-01       3.04101e-06       4.36696e-07       1.22277e-14       3.28224e-09       4.87056e-01       2.40200e-01       4.87056e-01      
 7.47000e-01       3.15233e-06       4.64567e-07       1.22599e-14       3.42028e-09       4.87056e-01       2.47186e-01       4.87056e-01      
 7.56000e-01       3.26366e-06       4.93441e-07       1.22903e-14       3.56066e-09       4.87056e-01       2.54216e-01       4.87056e-01      
 7.65000e-01       3.37494e-06       5.23315e-07       1.23190e-14       3.70337e-09       4.87056e-01       2.61289e-01       4.87056e-01      
 7.74000e-01       3.48610e-06       5.54191e-07       1.23463e-14       3.84839e-09       4.87056e-01       2.68401e-01       4.87056e-01      
 7.83000e-01       3.59711e-06       5.86066e-07       1.23722e-14       3.99570e-09       4.87056e-01       2.75550e-01       4.87056e-01      
 7.92000e-01       3.70793e-06       6.18940e-07       1.23967e-14       4.14529e-09       4.87056e-01       2.82735e-01       4.87056e-01      
 8.01000e-01       3.81851e-06       6.52809e-07       1.24201e-14       4.29715e-09       4.87056e-01       2.89954e-01       4.87056e-01      
 8.10000e-01       3.92882e-06       6.87673e-07       1.24424e-14       4.45127e-09       4.87056e-01       2.97204e-01       4.87056e-01      
 8.19000e-01       4.03884e-06       7.23528e-07       1.24636e-14       4.60765e-09       4.87056e-01       3.04486e-01       4.87056e-01      
 8.28000e-01       4.14853e-06       7.60371e-07       1.24839e-14       4.76628e-09       4.87056e-01       3.11796e-01       4.87056e-01      
 8.37000e-01       4.25788e-06       7.98200e-07       1.25034e-14       4.92718e-09       4.87056e-01       3.19134e-01       4.87056e-01      
 8.46000e-01       4.36686e-06       8.37012e-07       1.25219e-14       5.09033e-09       4.87056e-01       3.26499e-01       4.87056e-01      
 8.55000e-01       4.47545e-06       8.76802e-07       1.25398e-14       5.25575e-09       4.87056e-01       3.33890e-01       4.87056e-01      
 8.64000e-01       4.58363e-06       9.17568e-07       1.25569e-14       5.42344e-09       4.87056e-01       3.41306e-01       4.87056e-01      
 8.73000e-01       4.69139e-06       9.59305e-07       1.25733e-14       5.59342e-09       4.87056e-01       3.48746e-01       4.87056e-01      
 8.82000e-01       4.79872e-06       1.00201e-06       1.25891e-14       5.76569e-09       4.87056e-01       3.56209e-01       4.87056e-01      
 8.91000e-01       4.90558e-06       1.04568e-06       1.26043e-14       5.94027e-09       4.87056e-01       3.63695e-01       4.87056e-01      
 9.00000e-01       5.01198e-06       1.09031e-06       1.26190e-14       6.11718e-09       4.87056e-01       3.71203e-01       4.87056e-01      
 9.09000e-01       5.11789e-06       1.13589e-06       1.26332e-14       6.29643e-09       4.87056e-01       3.78733e-01       4.87056e-01      
 9.18000e-01       5.22331e-06       1.18243e-06       1.26469e-14       6.47805e-09       4.87056e-01       3.86283e-01       4.87056e-01      
 9.27000e-01       5.32822e-06       1.22991e-06       1.26602e-14       6.66205e-09       4.87056e-01       3.93855e-01       4.87056e-01      
 9.36000e-01       5.43261e-06       1.27833e-06       1.26730e-14       6.84846e-09       4.87056e-01       4.01447e-01       4.87056e-01      
 9.45000e-01       5.53645e-06       1.32769e-06       1.26854e-14       7.03730e-09       4.87056e-01       4.09059e-01       4.87056e-01      
 9.54000e-01       5.63976e-06       1.37798e-06       1.26975e-14       7.22860e-09       4.87056e-01       4.16690e-01       4.87056e-01      
 9.63000e-01       5.74250e-06       1.42920e-06       1.27092e-14       7.42239e-09       4.87056e-01       4.24341e-01       4.87056e-01      
 9.72000e-01       5.84466e-06       1.48134e-06       1.27205e-14       7.61870e-09       4.87056e-01       4.32012e-01       4.87056e-01      
 9.81000e-01       5.94624e-06       1.53440e-06       1.27316e-14       7.81756e-09       4.87056e-01       4.39701e-01       4.87056e-01      
 9.90000e-01       6.04723e-06       1.58837e-06       1.27423e-14       8.01900e-09       4.87056e-01       4.47410e-01       4.87056e-01      
 9.99000e-01       6.14760e-06       1.64325e-06       1.27528e-14       8.22307e-09       4.87056e-01       4.55137e-01       4.87056e-01      
 1.00800e+00       6.24735e-06       1.69902e-06       1.27630e-14       8.42980e-09       4.87056e-01       4.62883e-01       4.87056e-01      
 1.01700e+00       6.34646e-06       1.75570e-06       1.27729e-14       8.63922e-09       4.87056e-01       4.70647e-01       4.87056e-01      
 1.02600e+00       6.44492e-06       1.81326e-06       1.27826e-14       8.85138e-09       4.87056e-01       4.78430e-01       4.87056e-01      
 1.03500e+00       6.54273e-06       1.87170e-06       1.27921e-14       9.06633e-09       4.87056e-01       4.86231e-01       4.87056e-01      
 1.04400e+00       6.63986e-06       1.93102e-06       1.28013e-14       9.28410e-09       4.87056e-01       4.94051e-01       4.87056e-01      
 1.05300e+00       6.73630e-06       1.99121e-06       1.28103e-14       9.50475e-09       4.87056e-01       5.01888e-01       4.87056e-01      
 1.06200e+00       6.83205e-06       2.05227e-06       1.28191e-14       9.72832e-09       4.87056e-01       5.09745e-01       4.87056e-01      
 1.07100e+00       6.92709e-06       2.11418e-06       1.28277e-14       9.95487e-09       4.87056e-01       5.17619e-01       4.87056e-01      
 1.08000e+00       7.02140e-06       2.17695e-06       1.28362e-14       1.01844e-08       4.87056e-01       5.25512e-01       4.87056e-01      
 1.08900e+00       7.11499e-06       2.24056e-06       1.28444e-14       1.04171e-08       4.87056e-01       5.33423e-01       4.87056e-01      
 1.09800e+00       7.20782e-06       2.30501e-06       1.28525e-14       1.06529e-08       4.87056e-01       5.41353e-01       4.87056e-01      
 1.10700e+00       7.29990e-06       2.37030e-06       1.28604e-14       1.08919e-08       4.87056e-01       5.49301e-01       4.87056e-01      
 1.11600e+00       7.39122e-06       2.43641e-06       1.28682e-14       1.11342e-08       4.87056e-01       5.57267e-01       4.87056e-01      
 1.12500e+00       7.48175e-06       2.50333e-06       1.28758e-14       1.13798e-08       4.87056e-01       5.65252e-01       4.87056e-01      
 1.13400e+00       7.57150e-06       2.57107e-06       1.28833e-14       1.16287e-08       4.87056e-01       5.73255e-01       4.87056e-01      
 1.14300e+00       7.66044e-06       2.63962e-06       1.28906e-14       1.18812e-08       4.87056e-01       5.81276e-01       4.87056e-01      
 1.15200e+00       7.74857e-06       2.70896e-06       1.28978e-14       1.21372e-08       4.87056e-01       5.89316e-01       4.87056e-01      
 1.16100e+00       7.83588e-06       2.77909e-06       1.29048e-14       1.23968e-08       4.87056e-01       5.97375e-01       4.87056e-01      
 1.17000e+00       7.92236e-06       2.85000e-06       1.29118e-14       1.26601e-08       4.87056e-01       6.05453e-01       4.87056e-01      
 1.17900e+00       8.00799e-06       2.92168e-06       1.29186e-14       1.29272e-08       4.87056e-01       6.13549e-01       4.87056e-01      
 1.18800e+00       8.09278e-06       2.99414e-06       1.29253e-14       1.31981e-08       4.87056e-01       6.21664e-01       4.87056e-01      
 1.19700e+00       8.17670e-06       3.06735e-06       1.29318e-14       1.34730e-08       4.87056e-01       6.29798e-01       4.87056e-01      
 1.20600e+00       8.25976e-06       3.14131e-06       1.29383e-14       1.37520e-08       4.87056e-01       6.37951e-01       4.87056e-01      
 1.21500e+00       8.34193e-06       3.21602e-06       1.29446e-14       1.40351e-08       4.87056e-01       6.46123e-01       4.87056e-01      
