
dc (V)            getData("M0:gm    getData("M0:id    getData("M0:cg    getData("M0:gd    getData("M0:vt    getData("M0:vd    getData("M0:vt

 0.00000e+00       1.02874e-12       5.04770e-14       3.43685e-15       8.89529e-16       4.86618e-01       3.94243e-02       4.86618e-01      
 9.00000e-03       1.37944e-12       6.03513e-14       3.42283e-15       1.19291e-15       4.86618e-01       3.94244e-02       4.86618e-01      
 1.80000e-02       1.84957e-12       7.39907e-14       3.40940e-15       1.59970e-15       4.86618e-01       3.94244e-02       4.86618e-01      
 2.70000e-02       2.47976e-12       9.26356e-14       3.39660e-15       2.14511e-15       4.86618e-01       3.94245e-02       4.86618e-01      
 3.60000e-02       3.32440e-12       1.17952e-13       3.38448e-15       2.87632e-15       4.86618e-01       3.94246e-02       4.86618e-01      
 4.50000e-02       4.45634e-12       1.52175e-13       3.37310e-15       3.85655e-15       4.86618e-01       3.94247e-02       4.86618e-01      
 5.40000e-02       5.97304e-12       1.98302e-13       3.36252e-15       5.17045e-15       4.86618e-01       3.94248e-02       4.86618e-01      
 6.30000e-02       8.00494e-12       2.60349e-13       3.35283e-15       6.93142e-15       4.86618e-01       3.94250e-02       4.86618e-01      
 7.20000e-02       1.07265e-11       3.43697e-13       3.34416e-15       9.29123e-15       4.86618e-01       3.94252e-02       4.86618e-01      
 8.10000e-02       1.43708e-11       4.55548e-13       3.33663e-15       1.24530e-14       4.86618e-01       3.94256e-02       4.86618e-01      
 9.00000e-02       1.92494e-11       6.05541e-13       3.33042e-15       1.66885e-14       4.86618e-01       3.94260e-02       4.86618e-01      
 9.90000e-02       2.57780e-11       8.06566e-13       3.32573e-15       2.23611e-14       4.86618e-01       3.94266e-02       4.86618e-01      
 1.08000e-01       3.45113e-11       1.07585e-12       3.32282e-15       2.99563e-14       4.86618e-01       3.94274e-02       4.86618e-01      
 1.17000e-01       4.61883e-11       1.43642e-12       3.32199e-15       4.01226e-14       4.86618e-01       3.94285e-02       4.86618e-01      
 1.26000e-01       6.17908e-11       1.91897e-12       3.32351e-15       5.37253e-14       4.86618e-01       3.94299e-02       4.86618e-01      
 1.35000e-01       8.26229e-11       2.56445e-12       3.32780e-15       7.19170e-14       4.86618e-01       3.94318e-02       4.86618e-01      
 1.44000e-01       1.10418e-10       3.42737e-12       3.33546e-15       9.62331e-14       4.86618e-01       3.94343e-02       4.86618e-01      
 1.53000e-01       1.47471e-10       4.58028e-12       3.34710e-15       1.28715e-13       4.86618e-01       3.94378e-02       4.86618e-01      
 1.62000e-01       1.96810e-10       6.11953e-12       3.36338e-15       1.72074e-13       4.86618e-01       3.94423e-02       4.86618e-01      
 1.71000e-01       2.62431e-10       8.17290e-12       3.38509e-15       2.29902e-13       4.86618e-01       3.94484e-02       4.86618e-01      
 1.80000e-01       3.49579e-10       1.09096e-11       3.41310e-15       3.06950e-13       4.86618e-01       3.94565e-02       4.86618e-01      
 1.89000e-01       4.65121e-10       1.45528e-11       3.44838e-15       4.09485e-13       4.86618e-01       3.94672e-02       4.86618e-01      
 1.98000e-01       6.18007e-10       1.93969e-11       3.49198e-15       5.45748e-13       4.86618e-01       3.94815e-02       4.86618e-01      
 2.07000e-01       8.19848e-10       2.58281e-11       3.54504e-15       7.26539e-13       4.86618e-01       3.95005e-02       4.86618e-01      
 2.16000e-01       1.08562e-09       3.43517e-11       3.60871e-15       9.65947e-13       4.86618e-01       3.95256e-02       4.86618e-01      
 2.25000e-01       1.43452e-09       4.56262e-11       3.68419e-15       1.28227e-12       4.86618e-01       3.95587e-02       4.86618e-01      
 2.34000e-01       1.89095e-09       6.05058e-11       3.77264e-15       1.69911e-12       4.86618e-01       3.96024e-02       4.86618e-01      
 2.43000e-01       2.48572e-09       8.00919e-11       3.87514e-15       2.24674e-12       4.86618e-01       3.96597e-02       4.86618e-01      
 2.52000e-01       3.25730e-09       1.05797e-10       3.99270e-15       2.96364e-12       4.86618e-01       3.97347e-02       4.86618e-01      
 2.61000e-01       4.25321e-09       1.39420e-10       4.12614e-15       3.89826e-12       4.86618e-01       3.98324e-02       4.86618e-01      
 2.70000e-01       5.53153e-09       1.83233e-10       4.27609e-15       5.11097e-12       4.86618e-01       3.99591e-02       4.86618e-01      
 2.79000e-01       7.16220e-09       2.40085e-10       4.44296e-15       6.67599e-12       4.86618e-01       4.01223e-02       4.86618e-01      
 2.88000e-01       9.22828e-09       3.13511e-10       4.62689e-15       8.68324e-12       4.86618e-01       4.03312e-02       4.86618e-01      
 2.97000e-01       1.18269e-08       4.07859e-10       4.82772e-15       1.12398e-11       4.86618e-01       4.05967e-02       4.86618e-01      
 3.06000e-01       1.50694e-08       5.28413e-10       5.04503e-15       1.44709e-11       4.86618e-01       4.09313e-02       4.86618e-01      
 3.15000e-01       1.90816e-08       6.81528e-10       5.27807e-15       1.85193e-11       4.86618e-01       4.13491e-02       4.86618e-01      
 3.24000e-01       2.40018e-08       8.74746e-10       5.52586e-15       2.35446e-11       4.86618e-01       4.18653e-02       4.86618e-01      
 3.33000e-01       2.99793e-08       1.11691e-09       5.78709e-15       2.97193e-11       4.86618e-01       4.24964e-02       4.86618e-01      
 3.42000e-01       3.71705e-08       1.41823e-09       6.06027e-15       3.72252e-11       4.86618e-01       4.32588e-02       4.86618e-01      
 3.51000e-01       4.57345e-08       1.79037e-09       6.34368e-15       4.62466e-11       4.86618e-01       4.41684e-02       4.86618e-01      
 3.60000e-01       5.58279e-08       2.24637e-09       6.63546e-15       5.69642e-11       4.86618e-01       4.52403e-02       4.86618e-01      
 3.69000e-01       6.75995e-08       2.80070e-09       6.93362e-15       6.95478e-11       4.86618e-01       4.64871e-02       4.86618e-01      
 3.78000e-01       8.11863e-08       3.46909e-09       7.23613e-15       8.41505e-11       4.86618e-01       4.79192e-02       4.86618e-01      
 3.87000e-01       9.67117e-08       4.26844e-09       7.54093e-15       1.00904e-10       4.86618e-01       4.95440e-02       4.86618e-01      
 3.96000e-01       1.14286e-07       5.21671e-09       7.84601e-15       1.19918e-10       4.86618e-01       5.13662e-02       4.86618e-01      
 4.05000e-01       1.34011e-07       6.33281e-09       8.14944e-15       1.41278e-10       4.86618e-01       5.33877e-02       4.86618e-01      
 4.14000e-01       1.55986e-07       7.63655e-09       8.44939e-15       1.65049e-10       4.86618e-01       5.56083e-02       4.86618e-01      
 4.23000e-01       1.80312e-07       9.14863e-09       8.74422e-15       1.91280e-10       4.86618e-01       5.80262e-02       4.86618e-01      
 4.32000e-01       2.07101e-07       1.08907e-08       9.03243e-15       2.20008e-10       4.86618e-01       6.06388e-02       4.86618e-01      
 4.41000e-01       2.36474e-07       1.28855e-08       9.31273e-15       2.51265e-10       4.86618e-01       6.34427e-02       4.86618e-01      
 4.50000e-01       2.68565e-07       1.51568e-08       9.58404e-15       2.85076e-10       4.86618e-01       6.64347e-02       4.86618e-01      
 4.59000e-01       3.03516e-07       1.77298e-08       9.84548e-15       3.21469e-10       4.86618e-01       6.96115e-02       4.86618e-01      
 4.68000e-01       3.41471e-07       2.06309e-08       1.00964e-14       3.60469e-10       4.86618e-01       7.29705e-02       4.86618e-01      
 4.77000e-01       3.82569e-07       2.38876e-08       1.03362e-14       4.02106e-10       4.86618e-01       7.65090e-02       4.86618e-01      
 4.86000e-01       4.26937e-07       2.75290e-08       1.05646e-14       4.46407e-10       4.86618e-01       8.02247e-02       4.86618e-01      
 4.95000e-01       4.74682e-07       3.15849e-08       1.07816e-14       4.93402e-10       4.86618e-01       8.41154e-02       4.86618e-01      
 5.04000e-01       5.25885e-07       3.60861e-08       1.09870e-14       5.43117e-10       4.86618e-01       8.81789e-02       4.86618e-01      
 5.13000e-01       5.80598e-07       4.10640e-08       1.11809e-14       5.95574e-10       4.86618e-01       9.24126e-02       4.86618e-01      
 5.22000e-01       6.38839e-07       4.65502e-08       1.13637e-14       6.50791e-10       4.86618e-01       9.68139e-02       4.86618e-01      
 5.31000e-01       7.00590e-07       5.25765e-08       1.15355e-14       7.08780e-10       4.86618e-01       1.01380e-01       4.86618e-01      
 5.40000e-01       7.65802e-07       5.91743e-08       1.16968e-14       7.69547e-10       4.86618e-01       1.06106e-01       4.86618e-01      
 5.49000e-01       8.34391e-07       6.63743e-08       1.18480e-14       8.33089e-10       4.86618e-01       1.10990e-01       4.86618e-01      
 5.58000e-01       9.06243e-07       7.42064e-08       1.19895e-14       8.99398e-10       4.86618e-01       1.16026e-01       4.86618e-01      
 5.67000e-01       9.81219e-07       8.26995e-08       1.21217e-14       9.68457e-10       4.86618e-01       1.21209e-01       4.86618e-01      
 5.76000e-01       1.05916e-06       9.18808e-08       1.22453e-14       1.04024e-09       4.86618e-01       1.26534e-01       4.86618e-01      
 5.85000e-01       1.13988e-06       1.01776e-07       1.23607e-14       1.11473e-09       4.86618e-01       1.31997e-01       4.86618e-01      
 5.94000e-01       1.22320e-06       1.12410e-07       1.24683e-14       1.19188e-09       4.86618e-01       1.37590e-01       4.86618e-01      
 6.03000e-01       1.30890e-06       1.23805e-07       1.25688e-14       1.27166e-09       4.86618e-01       1.43308e-01       4.86618e-01      
 6.12000e-01       1.39680e-06       1.35981e-07       1.26624e-14       1.35403e-09       4.86618e-01       1.49145e-01       4.86618e-01      
 6.21000e-01       1.48668e-06       1.48957e-07       1.27498e-14       1.43893e-09       4.86618e-01       1.55094e-01       4.86618e-01      
 6.30000e-01       1.57835e-06       1.62750e-07       1.28314e-14       1.52634e-09       4.86618e-01       1.61151e-01       4.86618e-01      
 6.39000e-01       1.67161e-06       1.77376e-07       1.29075e-14       1.61619e-09       4.86618e-01       1.67308e-01       4.86618e-01      
 6.48000e-01       1.76627e-06       1.92847e-07       1.29785e-14       1.70845e-09       4.86618e-01       1.73561e-01       4.86618e-01      
 6.57000e-01       1.86216e-06       2.09176e-07       1.30449e-14       1.80306e-09       4.86618e-01       1.79903e-01       4.86618e-01      
 6.66000e-01       1.95911e-06       2.26373e-07       1.31070e-14       1.89999e-09       4.86618e-01       1.86329e-01       4.86618e-01      
 6.75000e-01       2.05697e-06       2.44447e-07       1.31650e-14       1.99918e-09       4.86618e-01       1.92834e-01       4.86618e-01      
 6.84000e-01       2.15558e-06       2.63404e-07       1.32194e-14       2.10060e-09       4.86618e-01       1.99413e-01       4.86618e-01      
 6.93000e-01       2.25483e-06       2.83252e-07       1.32704e-14       2.20420e-09       4.86618e-01       2.06061e-01       4.86618e-01      
 7.02000e-01       2.35459e-06       3.03996e-07       1.33182e-14       2.30996e-09       4.86618e-01       2.12775e-01       4.86618e-01      
 7.11000e-01       2.45476e-06       3.25639e-07       1.33631e-14       2.41783e-09       4.86618e-01       2.19549e-01       4.86618e-01      
 7.20000e-01       2.55524e-06       3.48185e-07       1.34054e-14       2.52778e-09       4.86618e-01       2.26381e-01       4.86618e-01      
 7.29000e-01       2.65593e-06       3.71637e-07       1.34451e-14       2.63978e-09       4.86618e-01       2.33266e-01       4.86618e-01      
 7.38000e-01       2.75677e-06       3.95995e-07       1.34826e-14       2.75381e-09       4.86618e-01       2.40202e-01       4.86618e-01      
 7.47000e-01       2.85769e-06       4.21261e-07       1.35180e-14       2.86984e-09       4.86618e-01       2.47186e-01       4.86618e-01      
 7.56000e-01       2.95861e-06       4.47436e-07       1.35515e-14       2.98786e-09       4.86618e-01       2.54214e-01       4.86618e-01      
 7.65000e-01       3.05950e-06       4.74518e-07       1.35831e-14       3.10783e-09       4.86618e-01       2.61284e-01       4.86618e-01      
 7.74000e-01       3.16029e-06       5.02508e-07       1.36131e-14       3.22976e-09       4.86618e-01       2.68394e-01       4.86618e-01      
 7.83000e-01       3.26096e-06       5.31404e-07       1.36416e-14       3.35362e-09       4.86618e-01       2.75541e-01       4.86618e-01      
 7.92000e-01       3.36145e-06       5.61206e-07       1.36686e-14       3.47940e-09       4.86618e-01       2.82724e-01       4.86618e-01      
 8.01000e-01       3.46174e-06       5.91911e-07       1.36944e-14       3.60711e-09       4.86618e-01       2.89941e-01       4.86618e-01      
 8.10000e-01       3.56179e-06       6.23517e-07       1.37189e-14       3.73672e-09       4.86618e-01       2.97190e-01       4.86618e-01      
 8.19000e-01       3.66159e-06       6.56023e-07       1.37423e-14       3.86824e-09       4.86618e-01       3.04469e-01       4.86618e-01      
 8.28000e-01       3.76110e-06       6.89425e-07       1.37646e-14       4.00167e-09       4.86618e-01       3.11778e-01       4.86618e-01      
 8.37000e-01       3.86031e-06       7.23722e-07       1.37859e-14       4.13700e-09       4.86618e-01       3.19115e-01       4.86618e-01      
 8.46000e-01       3.95919e-06       7.58909e-07       1.38064e-14       4.27425e-09       4.86618e-01       3.26479e-01       4.86618e-01      
 8.55000e-01       4.05772e-06       7.94986e-07       1.38260e-14       4.41341e-09       4.86618e-01       3.33869e-01       4.86618e-01      
 8.64000e-01       4.15590e-06       8.31947e-07       1.38448e-14       4.55449e-09       4.86618e-01       3.41285e-01       4.86618e-01      
 8.73000e-01       4.25370e-06       8.69790e-07       1.38629e-14       4.69751e-09       4.86618e-01       3.48724e-01       4.86618e-01      
 8.82000e-01       4.35111e-06       9.08511e-07       1.38804e-14       4.84246e-09       4.86618e-01       3.56187e-01       4.86618e-01      
 8.91000e-01       4.44812e-06       9.48108e-07       1.38971e-14       4.98937e-09       4.86618e-01       3.63673e-01       4.86618e-01      
 9.00000e-01       4.54471e-06       9.88575e-07       1.39133e-14       5.13825e-09       4.86618e-01       3.71182e-01       4.86618e-01      
 9.09000e-01       4.64087e-06       1.02991e-06       1.39289e-14       5.28911e-09       4.86618e-01       3.78712e-01       4.86618e-01      
 9.18000e-01       4.73659e-06       1.07211e-06       1.39440e-14       5.44196e-09       4.86618e-01       3.86264e-01       4.86618e-01      
 9.27000e-01       4.83185e-06       1.11516e-06       1.39586e-14       5.59684e-09       4.86618e-01       3.93836e-01       4.86618e-01      
 9.36000e-01       4.92665e-06       1.15908e-06       1.39727e-14       5.75375e-09       4.86618e-01       4.01430e-01       4.86618e-01      
 9.45000e-01       5.02097e-06       1.20384e-06       1.39864e-14       5.91273e-09       4.86618e-01       4.09043e-01       4.86618e-01      
 9.54000e-01       5.11480e-06       1.24945e-06       1.39997e-14       6.07378e-09       4.86618e-01       4.16677e-01       4.86618e-01      
 9.63000e-01       5.20813e-06       1.29590e-06       1.40126e-14       6.23695e-09       4.86618e-01       4.24330e-01       4.86618e-01      
 9.72000e-01       5.30095e-06       1.34319e-06       1.40251e-14       6.40225e-09       4.86618e-01       4.32003e-01       4.86618e-01      
 9.81000e-01       5.39324e-06       1.39132e-06       1.40372e-14       6.56970e-09       4.86618e-01       4.39695e-01       4.86618e-01      
 9.90000e-01       5.48500e-06       1.44027e-06       1.40491e-14       6.73935e-09       4.86618e-01       4.47406e-01       4.86618e-01      
 9.99000e-01       5.57621e-06       1.49004e-06       1.40606e-14       6.91122e-09       4.86618e-01       4.55136e-01       4.86618e-01      
 1.00800e+00       5.66686e-06       1.54064e-06       1.40718e-14       7.08534e-09       4.86618e-01       4.62885e-01       4.86618e-01      
 1.01700e+00       5.75695e-06       1.59204e-06       1.40828e-14       7.26175e-09       4.86618e-01       4.70653e-01       4.86618e-01      
 1.02600e+00       5.84645e-06       1.64426e-06       1.40934e-14       7.44048e-09       4.86618e-01       4.78440e-01       4.86618e-01      
 1.03500e+00       5.93536e-06       1.69727e-06       1.41038e-14       7.62156e-09       4.86618e-01       4.86246e-01       4.86618e-01      
 1.04400e+00       6.02366e-06       1.75109e-06       1.41140e-14       7.80505e-09       4.86618e-01       4.94070e-01       4.86618e-01      
 1.05300e+00       6.11135e-06       1.80569e-06       1.41239e-14       7.99097e-09       4.86618e-01       5.01913e-01       4.86618e-01      
 1.06200e+00       6.19842e-06       1.86109e-06       1.41337e-14       8.17937e-09       4.86618e-01       5.09774e-01       4.86618e-01      
 1.07100e+00       6.28485e-06       1.91726e-06       1.41431e-14       8.37030e-09       4.86618e-01       5.17654e-01       4.86618e-01      
 1.08000e+00       6.37062e-06       1.97421e-06       1.41524e-14       8.56379e-09       4.86618e-01       5.25552e-01       4.86618e-01      
 1.08900e+00       6.45574e-06       2.03193e-06       1.41615e-14       8.75990e-09       4.86618e-01       5.33469e-01       4.86618e-01      
 1.09800e+00       6.54019e-06       2.09041e-06       1.41704e-14       8.95867e-09       4.86618e-01       5.41405e-01       4.86618e-01      
 1.10700e+00       6.62396e-06       2.14965e-06       1.41792e-14       9.16017e-09       4.86618e-01       5.49359e-01       4.86618e-01      
 1.11600e+00       6.70704e-06       2.20964e-06       1.41877e-14       9.36443e-09       4.86618e-01       5.57332e-01       4.86618e-01      
 1.12500e+00       6.78941e-06       2.27037e-06       1.41961e-14       9.57152e-09       4.86618e-01       5.65323e-01       4.86618e-01      
 1.13400e+00       6.87108e-06       2.33184e-06       1.42043e-14       9.78149e-09       4.86618e-01       5.73334e-01       4.86618e-01      
 1.14300e+00       6.95202e-06       2.39404e-06       1.42124e-14       9.99441e-09       4.86618e-01       5.81363e-01       4.86618e-01      
 1.15200e+00       7.03223e-06       2.45697e-06       1.42203e-14       1.02103e-08       4.86618e-01       5.89411e-01       4.86618e-01      
 1.16100e+00       7.11170e-06       2.52062e-06       1.42281e-14       1.04293e-08       4.86618e-01       5.97477e-01       4.86618e-01      
 1.17000e+00       7.19042e-06       2.58498e-06       1.42357e-14       1.06515e-08       4.86618e-01       6.05563e-01       4.86618e-01      
 1.17900e+00       7.26838e-06       2.65004e-06       1.42432e-14       1.08768e-08       4.86618e-01       6.13668e-01       4.86618e-01      
 1.18800e+00       7.34558e-06       2.71580e-06       1.42505e-14       1.11055e-08       4.86618e-01       6.21792e-01       4.86618e-01      
 1.19700e+00       7.42200e-06       2.78226e-06       1.42578e-14       1.13375e-08       4.86618e-01       6.29935e-01       4.86618e-01      
 1.20600e+00       7.49763e-06       2.84940e-06       1.42649e-14       1.15729e-08       4.86618e-01       6.38097e-01       4.86618e-01      
 1.21500e+00       7.57247e-06       2.91721e-06       1.42719e-14       1.18119e-08       4.86618e-01       6.46278e-01       4.86618e-01      
