
dc (V)            getData("M0:gm    getData("M0:id    getData("M0:cg    getData("M0:gd    getData("M0:vt    getData("M0:vd    getData("M0:vt

 0.00000e+00       2.28591e-12       8.93087e-14       1.58021e-15       3.98395e-15       4.91523e-01       4.03413e-02       4.91523e-01      
 9.00000e-03       3.06185e-12       1.12324e-13       1.57407e-15       5.33690e-15       4.91523e-01       4.03414e-02       4.91523e-01      
 1.80000e-02       4.10096e-12       1.43550e-13       1.56818e-15       7.14906e-15       4.91523e-01       4.03414e-02       4.91523e-01      
 2.70000e-02       5.49236e-12       1.85727e-13       1.56255e-15       9.57613e-15       4.91523e-01       4.03415e-02       4.91523e-01      
 3.60000e-02       7.35530e-12       2.42532e-13       1.55721e-15       1.28265e-14       4.91523e-01       4.03415e-02       4.91523e-01      
 4.50000e-02       9.84927e-12       3.18885e-13       1.55216e-15       1.71793e-14       4.91523e-01       4.03416e-02       4.91523e-01      
 5.40000e-02       1.31875e-11       4.21374e-13       1.54745e-15       2.30075e-14       4.91523e-01       4.03418e-02       4.91523e-01      
 6.30000e-02       1.76552e-11       5.58817e-13       1.54310e-15       3.08107e-14       4.91523e-01       4.03419e-02       4.91523e-01      
 7.20000e-02       2.36332e-11       7.43009e-13       1.53916e-15       4.12565e-14       4.91523e-01       4.03421e-02       4.91523e-01      
 8.10000e-02       3.16302e-11       9.89723e-13       1.53569e-15       5.52381e-14       4.91523e-01       4.03424e-02       4.91523e-01      
 9.00000e-02       4.23252e-11       1.32004e-12       1.53276e-15       7.39486e-14       4.91523e-01       4.03428e-02       4.91523e-01      
 9.90000e-02       5.66242e-11       1.76214e-12       1.53043e-15       9.89824e-14       4.91523e-01       4.03434e-02       4.91523e-01      
 1.08000e-01       7.57343e-11       2.35364e-12       1.52883e-15       1.32468e-13       4.91523e-01       4.03441e-02       4.91523e-01      
 1.17000e-01       1.01263e-10       3.14475e-12       1.52806e-15       1.77247e-13       4.91523e-01       4.03451e-02       4.91523e-01      
 1.26000e-01       1.35345e-10       4.20242e-12       1.52823e-15       2.37106e-13       4.91523e-01       4.03464e-02       4.91523e-01      
 1.35000e-01       1.80815e-10       5.61580e-12       1.52952e-15       3.17088e-13       4.91523e-01       4.03481e-02       4.91523e-01      
 1.44000e-01       2.41439e-10       7.50360e-12       1.53216e-15       4.23903e-13       4.91523e-01       4.03504e-02       4.91523e-01      
 1.53000e-01       3.22198e-10       1.00236e-11       1.53641e-15       5.66474e-13       4.91523e-01       4.03534e-02       4.91523e-01      
 1.62000e-01       4.29677e-10       1.33855e-11       1.54252e-15       7.56641e-13       4.91523e-01       4.03575e-02       4.91523e-01      
 1.71000e-01       5.72549e-10       1.78670e-11       1.55084e-15       1.01009e-12       4.91523e-01       4.03630e-02       4.91523e-01      
 1.80000e-01       7.62215e-10       2.38358e-11       1.56170e-15       1.34758e-12       4.91523e-01       4.03702e-02       4.91523e-01      
 1.89000e-01       1.01361e-09       3.17775e-11       1.57551e-15       1.79646e-12       4.91523e-01       4.03798e-02       4.91523e-01      
 1.98000e-01       1.34621e-09       4.23318e-11       1.59272e-15       2.39274e-12       4.91523e-01       4.03927e-02       4.91523e-01      
 2.07000e-01       1.78532e-09       5.63387e-11       1.61379e-15       3.18364e-12       4.91523e-01       4.04096e-02       4.91523e-01      
 2.16000e-01       2.36364e-09       7.48984e-11       1.63923e-15       4.23080e-12       4.91523e-01       4.04321e-02       4.91523e-01      
 2.25000e-01       3.12313e-09       9.94453e-11       1.66954e-15       5.61436e-12       4.91523e-01       4.04618e-02       4.91523e-01      
 2.34000e-01       4.11733e-09       1.31842e-10       1.70523e-15       7.43794e-12       4.91523e-01       4.05010e-02       4.91523e-01      
 2.43000e-01       5.41393e-09       1.74495e-10       1.74679e-15       9.83464e-12       4.91523e-01       4.05524e-02       4.91523e-01      
 2.52000e-01       7.09781e-09       2.30496e-10       1.79468e-15       1.29741e-11       4.91523e-01       4.06197e-02       4.91523e-01      
 2.61000e-01       9.27423e-09       3.03788e-10       1.84928e-15       1.70708e-11       4.91523e-01       4.07075e-02       4.91523e-01      
 2.70000e-01       1.20723e-08       3.99368e-10       1.91092e-15       2.23926e-11       4.91523e-01       4.08216e-02       4.91523e-01      
 2.79000e-01       1.56481e-08       5.23514e-10       1.97982e-15       2.92707e-11       4.91523e-01       4.09688e-02       4.91523e-01      
 2.88000e-01       2.01882e-08       6.84047e-10       2.05609e-15       3.81083e-11       4.91523e-01       4.11577e-02       4.91523e-01      
 2.97000e-01       2.59114e-08       8.90607e-10       2.13974e-15       4.93886e-11       4.91523e-01       4.13986e-02       4.91523e-01      
 3.06000e-01       3.30704e-08       1.15496e-09       2.23064e-15       6.36797e-11       4.91523e-01       4.17032e-02       4.91523e-01      
 3.15000e-01       4.19514e-08       1.49130e-09       2.32855e-15       8.16354e-11       4.91523e-01       4.20851e-02       4.91523e-01      
 3.24000e-01       5.28716e-08       1.91653e-09       2.43308e-15       1.03990e-10       4.91523e-01       4.25593e-02       4.91523e-01      
 3.33000e-01       6.61749e-08       2.45054e-09       2.54374e-15       1.31546e-10       4.91523e-01       4.31419e-02       4.91523e-01      
 3.42000e-01       8.22243e-08       3.11642e-09       2.65994e-15       1.65152e-10       4.91523e-01       4.38497e-02       4.91523e-01      
 3.51000e-01       1.01392e-07       3.94056e-09       2.78097e-15       2.05678e-10       4.91523e-01       4.46994e-02       4.91523e-01      
 3.60000e-01       1.24046e-07       4.95270e-09       2.90608e-15       2.53979e-10       4.91523e-01       4.57069e-02       4.91523e-01      
 3.69000e-01       1.50540e-07       6.18585e-09       3.03441e-15       3.10862e-10       4.91523e-01       4.68863e-02       4.91523e-01      
 3.78000e-01       1.81201e-07       7.67605e-09       3.16511e-15       3.77052e-10       4.91523e-01       4.82495e-02       4.91523e-01      
 3.87000e-01       2.16320e-07       9.46217e-09       3.29729e-15       4.53168e-10       4.91523e-01       4.98058e-02       4.91523e-01      
 3.96000e-01       2.56156e-07       1.15855e-08       3.43007e-15       5.39712e-10       4.91523e-01       5.15613e-02       4.91523e-01      
 4.05000e-01       3.00939e-07       1.40897e-08       3.56259e-15       6.37059e-10       4.91523e-01       5.35194e-02       4.91523e-01      
 4.14000e-01       3.50882e-07       1.70200e-08       3.69403e-15       7.45476e-10       4.91523e-01       5.56810e-02       4.91523e-01      
 4.23000e-01       4.06200e-07       2.04241e-08       3.82366e-15       8.65136e-10       4.91523e-01       5.80449e-02       4.91523e-01      
 4.32000e-01       4.67120e-07       2.43512e-08       3.95076e-15       9.96144e-10       4.91523e-01       6.06086e-02       4.91523e-01      
 4.41000e-01       5.33897e-07       2.88529e-08       4.07475e-15       1.13856e-09       4.91523e-01       6.33689e-02       4.91523e-01      
 4.50000e-01       6.06813e-07       3.39832e-08       4.19510e-15       1.29244e-09       4.91523e-01       6.63222e-02       4.91523e-01      
 4.59000e-01       6.86172e-07       3.97986e-08       4.31139e-15       1.45780e-09       4.91523e-01       6.94650e-02       4.91523e-01      
 4.68000e-01       7.72295e-07       4.63587e-08       4.42325e-15       1.63471e-09       4.91523e-01       7.27941e-02       4.91523e-01      
 4.77000e-01       8.65500e-07       5.37258e-08       4.53045e-15       1.82320e-09       4.91523e-01       7.63063e-02       4.91523e-01      
 4.86000e-01       9.66084e-07       6.19649e-08       4.63279e-15       2.02336e-09       4.91523e-01       7.99991e-02       4.91523e-01      
 4.95000e-01       1.07431e-06       7.11436e-08       4.73016e-15       2.23526e-09       4.91523e-01       8.38700e-02       4.91523e-01      
 5.04000e-01       1.19038e-06       8.13317e-08       4.82253e-15       2.45898e-09       4.91523e-01       8.79164e-02       4.91523e-01      
 5.13000e-01       1.31444e-06       9.26006e-08       4.90992e-15       2.69458e-09       4.91523e-01       9.21358e-02       4.91523e-01      
 5.22000e-01       1.44657e-06       1.05023e-07       4.99239e-15       2.94212e-09       4.91523e-01       9.65254e-02       4.91523e-01      
 5.31000e-01       1.58674e-06       1.18670e-07       5.07004e-15       3.20164e-09       4.91523e-01       1.01082e-01       4.91523e-01      
 5.40000e-01       1.73488e-06       1.33615e-07       5.14301e-15       3.47314e-09       4.91523e-01       1.05802e-01       4.91523e-01      
 5.49000e-01       1.89080e-06       1.49929e-07       5.21149e-15       3.75663e-09       4.91523e-01       1.10682e-01       4.91523e-01      
 5.58000e-01       2.05427e-06       1.67680e-07       5.27564e-15       4.05205e-09       4.91523e-01       1.15717e-01       4.91523e-01      
 5.67000e-01       2.22499e-06       1.86936e-07       5.33568e-15       4.35933e-09       4.91523e-01       1.20903e-01       4.91523e-01      
 5.76000e-01       2.40259e-06       2.07759e-07       5.39181e-15       4.67837e-09       4.91523e-01       1.26233e-01       4.91523e-01      
 5.85000e-01       2.58666e-06       2.30211e-07       5.44424e-15       5.00904e-09       4.91523e-01       1.31703e-01       4.91523e-01      
 5.94000e-01       2.77677e-06       2.54346e-07       5.49320e-15       5.35121e-09       4.91523e-01       1.37307e-01       4.91523e-01      
 6.03000e-01       2.97245e-06       2.80219e-07       5.53889e-15       5.70470e-09       4.91523e-01       1.43038e-01       4.91523e-01      
 6.12000e-01       3.17322e-06       3.07875e-07       5.58152e-15       6.06933e-09       4.91523e-01       1.48891e-01       4.91523e-01      
 6.21000e-01       3.37860e-06       3.37360e-07       5.62130e-15       6.44490e-09       4.91523e-01       1.54858e-01       4.91523e-01      
 6.30000e-01       3.58812e-06       3.68712e-07       5.65843e-15       6.83121e-09       4.91523e-01       1.60935e-01       4.91523e-01      
 6.39000e-01       3.80131e-06       4.01966e-07       5.69307e-15       7.22805e-09       4.91523e-01       1.67114e-01       4.91523e-01      
 6.48000e-01       4.01771e-06       4.37154e-07       5.72543e-15       7.63521e-09       4.91523e-01       1.73391e-01       4.91523e-01      
 6.57000e-01       4.23691e-06       4.74302e-07       5.75565e-15       8.05249e-09       4.91523e-01       1.79758e-01       4.91523e-01      
 6.66000e-01       4.45849e-06       5.13434e-07       5.78390e-15       8.47967e-09       4.91523e-01       1.86210e-01       4.91523e-01      
 6.75000e-01       4.68209e-06       5.54570e-07       5.81033e-15       8.91656e-09       4.91523e-01       1.92743e-01       4.91523e-01      
 6.84000e-01       4.90735e-06       5.97725e-07       5.83507e-15       9.36296e-09       4.91523e-01       1.99349e-01       4.91523e-01      
 6.93000e-01       5.13396e-06       6.42914e-07       5.85825e-15       9.81869e-09       4.91523e-01       2.06026e-01       4.91523e-01      
 7.02000e-01       5.36161e-06       6.90147e-07       5.87999e-15       1.02836e-08       4.91523e-01       2.12768e-01       4.91523e-01      
 7.11000e-01       5.59006e-06       7.39433e-07       5.90041e-15       1.07575e-08       4.91523e-01       2.19571e-01       4.91523e-01      
 7.20000e-01       5.81906e-06       7.90777e-07       5.91959e-15       1.12402e-08       4.91523e-01       2.26431e-01       4.91523e-01      
 7.29000e-01       6.04839e-06       8.44183e-07       5.93765e-15       1.17316e-08       4.91523e-01       2.33343e-01       4.91523e-01      
 7.38000e-01       6.27787e-06       8.99654e-07       5.95466e-15       1.22316e-08       4.91523e-01       2.40305e-01       4.91523e-01      
 7.47000e-01       6.50732e-06       9.57190e-07       5.97071e-15       1.27400e-08       4.91523e-01       2.47314e-01       4.91523e-01      
 7.56000e-01       6.73660e-06       1.01679e-06       5.98587e-15       1.32568e-08       4.91523e-01       2.54366e-01       4.91523e-01      
 7.65000e-01       6.96557e-06       1.07845e-06       6.00020e-15       1.37818e-08       4.91523e-01       2.61458e-01       4.91523e-01      
 7.74000e-01       7.19412e-06       1.14217e-06       6.01378e-15       1.43151e-08       4.91523e-01       2.68589e-01       4.91523e-01      
 7.83000e-01       7.42213e-06       1.20795e-06       6.02665e-15       1.48564e-08       4.91523e-01       2.75755e-01       4.91523e-01      
 7.92000e-01       7.64953e-06       1.27577e-06       6.03887e-15       1.54058e-08       4.91523e-01       2.82955e-01       4.91523e-01      
 8.01000e-01       7.87623e-06       1.34564e-06       6.05049e-15       1.59632e-08       4.91523e-01       2.90186e-01       4.91523e-01      
 8.10000e-01       8.10215e-06       1.41754e-06       6.06156e-15       1.65285e-08       4.91523e-01       2.97447e-01       4.91523e-01      
 8.19000e-01       8.32724e-06       1.49148e-06       6.07211e-15       1.71018e-08       4.91523e-01       3.04737e-01       4.91523e-01      
 8.28000e-01       8.55144e-06       1.56743e-06       6.08217e-15       1.76830e-08       4.91523e-01       3.12053e-01       4.91523e-01      
 8.37000e-01       8.77471e-06       1.64540e-06       6.09180e-15       1.82721e-08       4.91523e-01       3.19395e-01       4.91523e-01      
 8.46000e-01       8.99698e-06       1.72537e-06       6.10101e-15       1.88690e-08       4.91523e-01       3.26761e-01       4.91523e-01      
 8.55000e-01       9.21823e-06       1.80734e-06       6.10984e-15       1.94740e-08       4.91523e-01       3.34150e-01       4.91523e-01      
 8.64000e-01       9.43842e-06       1.89130e-06       6.11830e-15       2.00868e-08       4.91523e-01       3.41562e-01       4.91523e-01      
 8.73000e-01       9.65752e-06       1.97723e-06       6.12644e-15       2.07076e-08       4.91523e-01       3.48995e-01       4.91523e-01      
 8.82000e-01       9.87549e-06       2.06513e-06       6.13426e-15       2.13363e-08       4.91523e-01       3.56448e-01       4.91523e-01      
 8.91000e-01       1.00923e-05       2.15498e-06       6.14179e-15       2.19731e-08       4.91523e-01       3.63922e-01       4.91523e-01      
 9.00000e-01       1.03079e-05       2.24678e-06       6.14905e-15       2.26179e-08       4.91523e-01       3.71415e-01       4.91523e-01      
 9.09000e-01       1.05223e-05       2.34052e-06       6.15605e-15       2.32708e-08       4.91523e-01       3.78926e-01       4.91523e-01      
 9.18000e-01       1.07355e-05       2.43618e-06       6.16282e-15       2.39320e-08       4.91523e-01       3.86455e-01       4.91523e-01      
 9.27000e-01       1.09475e-05       2.53375e-06       6.16936e-15       2.46013e-08       4.91523e-01       3.94003e-01       4.91523e-01      
 9.36000e-01       1.11581e-05       2.63322e-06       6.17569e-15       2.52789e-08       4.91523e-01       4.01567e-01       4.91523e-01      
 9.45000e-01       1.13674e-05       2.73459e-06       6.18182e-15       2.59649e-08       4.91523e-01       4.09149e-01       4.91523e-01      
 9.54000e-01       1.15754e-05       2.83783e-06       6.18776e-15       2.66594e-08       4.91523e-01       4.16747e-01       4.91523e-01      
 9.63000e-01       1.17821e-05       2.94293e-06       6.19353e-15       2.73624e-08       4.91523e-01       4.24361e-01       4.91523e-01      
 9.72000e-01       1.19874e-05       3.04989e-06       6.19913e-15       2.80741e-08       4.91523e-01       4.31992e-01       4.91523e-01      
 9.81000e-01       1.21913e-05       3.15870e-06       6.20457e-15       2.87944e-08       4.91523e-01       4.39639e-01       4.91523e-01      
 9.90000e-01       1.23937e-05       3.26933e-06       6.20987e-15       2.95237e-08       4.91523e-01       4.47301e-01       4.91523e-01      
 9.99000e-01       1.25948e-05       3.38177e-06       6.21502e-15       3.02619e-08       4.91523e-01       4.54979e-01       4.91523e-01      
 1.00800e+00       1.27943e-05       3.49602e-06       6.22004e-15       3.10091e-08       4.91523e-01       4.62673e-01       4.91523e-01      
 1.01700e+00       1.29924e-05       3.61206e-06       6.22493e-15       3.17656e-08       4.91523e-01       4.70381e-01       4.91523e-01      
 1.02600e+00       1.31890e-05       3.72987e-06       6.22970e-15       3.25314e-08       4.91523e-01       4.78106e-01       4.91523e-01      
 1.03500e+00       1.33840e-05       3.84945e-06       6.23436e-15       3.33066e-08       4.91523e-01       4.85845e-01       4.91523e-01      
 1.04400e+00       1.35775e-05       3.97078e-06       6.23891e-15       3.40914e-08       4.91523e-01       4.93600e-01       4.91523e-01      
 1.05300e+00       1.37694e-05       4.09383e-06       6.24335e-15       3.48860e-08       4.91523e-01       5.01370e-01       4.91523e-01      
 1.06200e+00       1.39598e-05       4.21861e-06       6.24769e-15       3.56905e-08       4.91523e-01       5.09154e-01       4.91523e-01      
 1.07100e+00       1.41485e-05       4.34510e-06       6.25193e-15       3.65050e-08       4.91523e-01       5.16955e-01       4.91523e-01      
 1.08000e+00       1.43356e-05       4.47328e-06       6.25609e-15       3.73298e-08       4.91523e-01       5.24770e-01       4.91523e-01      
 1.08900e+00       1.45210e-05       4.60313e-06       6.26016e-15       3.81650e-08       4.91523e-01       5.32600e-01       4.91523e-01      
 1.09800e+00       1.47048e-05       4.73464e-06       6.26414e-15       3.90107e-08       4.91523e-01       5.40446e-01       4.91523e-01      
 1.10700e+00       1.48869e-05       4.86780e-06       6.26804e-15       3.98673e-08       4.91523e-01       5.48306e-01       4.91523e-01      
 1.11600e+00       1.50672e-05       5.00260e-06       6.27186e-15       4.07347e-08       4.91523e-01       5.56182e-01       4.91523e-01      
 1.12500e+00       1.52459e-05       5.13900e-06       6.27562e-15       4.16134e-08       4.91523e-01       5.64074e-01       4.91523e-01      
 1.13400e+00       1.54227e-05       5.27701e-06       6.27929e-15       4.25034e-08       4.91523e-01       5.71980e-01       4.91523e-01      
 1.14300e+00       1.55978e-05       5.41660e-06       6.28290e-15       4.34051e-08       4.91523e-01       5.79902e-01       4.91523e-01      
 1.15200e+00       1.57712e-05       5.55776e-06       6.28645e-15       4.43185e-08       4.91523e-01       5.87840e-01       4.91523e-01      
 1.16100e+00       1.59427e-05       5.70047e-06       6.28993e-15       4.52441e-08       4.91523e-01       5.95793e-01       4.91523e-01      
 1.17000e+00       1.61124e-05       5.84472e-06       6.29335e-15       4.61819e-08       4.91523e-01       6.03761e-01       4.91523e-01      
 1.17900e+00       1.62802e-05       5.99048e-06       6.29671e-15       4.71323e-08       4.91523e-01       6.11745e-01       4.91523e-01      
 1.18800e+00       1.64463e-05       6.13775e-06       6.30001e-15       4.80956e-08       4.91523e-01       6.19746e-01       4.91523e-01      
 1.19700e+00       1.66104e-05       6.28650e-06       6.30325e-15       4.90719e-08       4.91523e-01       6.27761e-01       4.91523e-01      
 1.20600e+00       1.67727e-05       6.43673e-06       6.30645e-15       5.00616e-08       4.91523e-01       6.35793e-01       4.91523e-01      
 1.21500e+00       1.69330e-05       6.58840e-06       6.30959e-15       5.10650e-08       4.91523e-01       6.43841e-01       4.91523e-01      
