
dc (V)            getData("M0:gm    getData("M0:id    getData("M0:cg    getData("M0:gd    getData("M0:vt    getData("M0:vd    getData("M0:vt

 0.00000e+00       1.30562e-12       5.90043e-14       2.71478e-15       1.39307e-15       4.87785e-01       3.96288e-02       4.87785e-01      
 9.00000e-03       1.75028e-12       7.17741e-14       2.70382e-15       1.86774e-15       4.87785e-01       3.96289e-02       4.87785e-01      
 1.80000e-02       2.34624e-12       8.92915e-14       2.69332e-15       2.50405e-15       4.87785e-01       3.96289e-02       4.87785e-01      
 2.70000e-02       3.14492e-12       1.13130e-13       2.68331e-15       3.35699e-15       4.87785e-01       3.96290e-02       4.87785e-01      
 3.60000e-02       4.21515e-12       1.45402e-13       2.67382e-15       4.50023e-15       4.87785e-01       3.96290e-02       4.87785e-01      
 4.50000e-02       5.64906e-12       1.88938e-13       2.66489e-15       6.03244e-15       4.87785e-01       3.96291e-02       4.87785e-01      
 5.40000e-02       7.56995e-12       2.47536e-13       2.65659e-15       8.08576e-15       4.87785e-01       3.96293e-02       4.87785e-01      
 6.30000e-02       1.01428e-11       3.26279e-13       2.64897e-15       1.08371e-14       4.87785e-01       3.96295e-02       4.87785e-01      
 7.20000e-02       1.35880e-11       4.31976e-13       2.64213e-15       1.45232e-14       4.87785e-01       3.96297e-02       4.87785e-01      
 8.10000e-02       1.82005e-11       5.73740e-13       2.63617e-15       1.94610e-14       4.87785e-01       3.96300e-02       4.87785e-01      
 9.00000e-02       2.43738e-11       7.63762e-13       2.63122e-15       2.60741e-14       4.87785e-01       3.96305e-02       4.87785e-01      
 9.90000e-02       3.26334e-11       1.01834e-12       2.62743e-15       3.49290e-14       4.87785e-01       3.96310e-02       4.87785e-01      
 1.08000e-01       4.36801e-11       1.35927e-12       2.62501e-15       4.67826e-14       4.87785e-01       3.96318e-02       4.87785e-01      
 1.17000e-01       5.84474e-11       1.81563e-12       2.62418e-15       6.26457e-14       4.87785e-01       3.96329e-02       4.87785e-01      
 1.26000e-01       7.81756e-11       2.42625e-12       2.62515e-15       8.38665e-14       4.87785e-01       3.96343e-02       4.87785e-01      
 1.35000e-01       1.04512e-10       3.24285e-12       2.62824e-15       1.12241e-13       4.87785e-01       3.96361e-02       4.87785e-01      
 1.44000e-01       1.39646e-10       4.33431e-12       2.63392e-15       1.50161e-13       4.87785e-01       3.96386e-02       4.87785e-01      
 1.53000e-01       1.86474e-10       5.79229e-12       2.64263e-15       2.00806e-13       4.87785e-01       3.96419e-02       4.87785e-01      
 1.62000e-01       2.48825e-10       7.73852e-12       2.65490e-15       2.68400e-13       4.87785e-01       3.96463e-02       4.87785e-01      
 1.71000e-01       3.31742e-10       1.03344e-11       2.67134e-15       3.58537e-13       4.87785e-01       3.96523e-02       4.87785e-01      
 1.80000e-01       4.41853e-10       1.37937e-11       2.69261e-15       4.78618e-13       4.87785e-01       3.96601e-02       4.87785e-01      
 1.89000e-01       5.87834e-10       1.83984e-11       2.71946e-15       6.38405e-13       4.87785e-01       3.96706e-02       4.87785e-01      
 1.98000e-01       7.80996e-10       2.45203e-11       2.75271e-15       8.50736e-13       4.87785e-01       3.96845e-02       4.87785e-01      
 2.07000e-01       1.03602e-09       3.26474e-11       2.79322e-15       1.13244e-12       4.87785e-01       3.97030e-02       4.87785e-01      
 2.16000e-01       1.37185e-09       4.34184e-11       2.84190e-15       1.50547e-12       4.87785e-01       3.97274e-02       4.87785e-01      
 2.25000e-01       1.81276e-09       5.76656e-11       2.89969e-15       1.99835e-12       4.87785e-01       3.97597e-02       4.87785e-01      
 2.34000e-01       2.38968e-09       7.64691e-11       2.96748e-15       2.64790e-12       4.87785e-01       3.98022e-02       4.87785e-01      
 2.43000e-01       3.14163e-09       1.01222e-10       3.04614e-15       3.50136e-12       4.87785e-01       3.98580e-02       4.87785e-01      
 2.52000e-01       4.11738e-09       1.33713e-10       3.13644e-15       4.61880e-12       4.87785e-01       3.99311e-02       4.87785e-01      
 2.61000e-01       5.37730e-09       1.76218e-10       3.23906e-15       6.07594e-12       4.87785e-01       4.00263e-02       4.87785e-01      
 2.70000e-01       6.99515e-09       2.31617e-10       3.35451e-15       7.96719e-12       4.87785e-01       4.01498e-02       4.87785e-01      
 2.79000e-01       9.05991e-09       3.03523e-10       3.48312e-15       1.04087e-11       4.87785e-01       4.03090e-02       4.87785e-01      
 2.88000e-01       1.16774e-08       3.96421e-10       3.62502e-15       1.35415e-11       4.87785e-01       4.05129e-02       4.87785e-01      
 2.97000e-01       1.49713e-08       5.15831e-10       3.78013e-15       1.75337e-11       4.87785e-01       4.07722e-02       4.87785e-01      
 3.06000e-01       1.90841e-08       6.68472e-10       3.94814e-15       2.25817e-11       4.87785e-01       4.10993e-02       4.87785e-01      
 3.15000e-01       2.41763e-08       8.62425e-10       4.12850e-15       2.89107e-11       4.87785e-01       4.15082e-02       4.87785e-01      
 3.24000e-01       3.04252e-08       1.10730e-09       4.32046e-15       3.67718e-11       4.87785e-01       4.20140e-02       4.87785e-01      
 3.33000e-01       3.80220e-08       1.41435e-09       4.52304e-15       4.64375e-11       4.87785e-01       4.26331e-02       4.87785e-01      
 3.42000e-01       4.71678e-08       1.79662e-09       4.73509e-15       5.81947e-11       4.87785e-01       4.33821e-02       4.87785e-01      
 3.51000e-01       5.80672e-08       2.26898e-09       4.95529e-15       7.23348e-11       4.87785e-01       4.42771e-02       4.87785e-01      
 3.60000e-01       7.09221e-08       2.84812e-09       5.18221e-15       8.91435e-11       4.87785e-01       4.53332e-02       4.87785e-01      
 3.69000e-01       8.59248e-08       3.55253e-09       5.41431e-15       1.08889e-10       4.87785e-01       4.65636e-02       4.87785e-01      
 3.78000e-01       1.03252e-07       4.40235e-09       5.65000e-15       1.31812e-10       4.87785e-01       4.79789e-02       4.87785e-01      
 3.87000e-01       1.23064e-07       5.41925e-09       5.88769e-15       1.58120e-10       4.87785e-01       4.95872e-02       4.87785e-01      
 3.96000e-01       1.45502e-07       6.62624e-09       6.12580e-15       1.87981e-10       4.87785e-01       5.13932e-02       4.87785e-01      
 4.05000e-01       1.70697e-07       8.04756e-09       6.36281e-15       2.21527e-10       4.87785e-01       5.33994e-02       4.87785e-01      
 4.14000e-01       1.98772e-07       9.70857e-09       6.59730e-15       2.58855e-10       4.87785e-01       5.56057e-02       4.87785e-01      
 4.23000e-01       2.29855e-07       1.16358e-08       6.82795e-15       3.00036e-10       4.87785e-01       5.80105e-02       4.87785e-01      
 4.32000e-01       2.64087e-07       1.38569e-08       7.05360e-15       3.45121e-10       4.87785e-01       6.06111e-02       4.87785e-01      
 4.41000e-01       3.01619e-07       1.64009e-08       7.27321e-15       3.94148e-10       4.87785e-01       6.34042e-02       4.87785e-01      
 4.50000e-01       3.42620e-07       1.92983e-08       7.48592e-15       4.47152e-10       4.87785e-01       6.63865e-02       4.87785e-01      
 4.59000e-01       3.87269e-07       2.25811e-08       7.69101e-15       5.04164e-10       4.87785e-01       6.95548e-02       4.87785e-01      
 4.68000e-01       4.35751e-07       2.62829e-08       7.88793e-15       5.65221e-10       4.87785e-01       7.29061e-02       4.87785e-01      
 4.77000e-01       4.88242e-07       3.04391e-08       8.07628e-15       6.30357e-10       4.87785e-01       7.64378e-02       4.87785e-01      
 4.86000e-01       5.44908e-07       3.50865e-08       8.25580e-15       6.99614e-10       4.87785e-01       8.01474e-02       4.87785e-01      
 4.95000e-01       6.05886e-07       4.02633e-08       8.42634e-15       7.73028e-10       4.87785e-01       8.40328e-02       4.87785e-01      
 5.04000e-01       6.71286e-07       4.60088e-08       8.58788e-15       8.50637e-10       4.87785e-01       8.80915e-02       4.87785e-01      
 5.13000e-01       7.41176e-07       5.23632e-08       8.74050e-15       9.32472e-10       4.87785e-01       9.23213e-02       4.87785e-01      
 5.22000e-01       8.15583e-07       5.93671e-08       8.88435e-15       1.01856e-09       4.87785e-01       9.67192e-02       4.87785e-01      
 5.31000e-01       8.94489e-07       6.70610e-08       9.01965e-15       1.10892e-09       4.87785e-01       1.01282e-01       4.87785e-01      
 5.40000e-01       9.77833e-07       7.54852e-08       9.14668e-15       1.20355e-09       4.87785e-01       1.06007e-01       4.87785e-01      
 5.49000e-01       1.06551e-06       8.46791e-08       9.26576e-15       1.30245e-09       4.87785e-01       1.10889e-01       4.87785e-01      
 5.58000e-01       1.15738e-06       9.46813e-08       9.37724e-15       1.40562e-09       4.87785e-01       1.15924e-01       4.87785e-01      
 5.67000e-01       1.25326e-06       1.05529e-07       9.48149e-15       1.51301e-09       4.87785e-01       1.21107e-01       4.87785e-01      
 5.76000e-01       1.35296e-06       1.17256e-07       9.57890e-15       1.62460e-09       4.87785e-01       1.26434e-01       4.87785e-01      
 5.85000e-01       1.45623e-06       1.29897e-07       9.66985e-15       1.74034e-09       4.87785e-01       1.31897e-01       4.87785e-01      
 5.94000e-01       1.56284e-06       1.43483e-07       9.75473e-15       1.86019e-09       4.87785e-01       1.37493e-01       4.87785e-01      
 6.03000e-01       1.67253e-06       1.58043e-07       9.83393e-15       1.98407e-09       4.87785e-01       1.43214e-01       4.87785e-01      
 6.12000e-01       1.78503e-06       1.73602e-07       9.90780e-15       2.11194e-09       4.87785e-01       1.49054e-01       4.87785e-01      
 6.21000e-01       1.90009e-06       1.90186e-07       9.97672e-15       2.24371e-09       4.87785e-01       1.55008e-01       4.87785e-01      
 6.30000e-01       2.01744e-06       2.07816e-07       1.00410e-14       2.37932e-09       4.87785e-01       1.61069e-01       4.87785e-01      
 6.39000e-01       2.13683e-06       2.26511e-07       1.01010e-14       2.51870e-09       4.87785e-01       1.67232e-01       4.87785e-01      
 6.48000e-01       2.25803e-06       2.46289e-07       1.01571e-14       2.66178e-09       4.87785e-01       1.73490e-01       4.87785e-01      
 6.57000e-01       2.38079e-06       2.67165e-07       1.02094e-14       2.80847e-09       4.87785e-01       1.79838e-01       4.87785e-01      
 6.66000e-01       2.50491e-06       2.89152e-07       1.02584e-14       2.95872e-09       4.87785e-01       1.86270e-01       4.87785e-01      
 6.75000e-01       2.63019e-06       3.12261e-07       1.03042e-14       3.11245e-09       4.87785e-01       1.92782e-01       4.87785e-01      
 6.84000e-01       2.75643e-06       3.36503e-07       1.03470e-14       3.26960e-09       4.87785e-01       1.99368e-01       4.87785e-01      
 6.93000e-01       2.88347e-06       3.61884e-07       1.03872e-14       3.43011e-09       4.87785e-01       2.06023e-01       4.87785e-01      
 7.02000e-01       3.01115e-06       3.88411e-07       1.04249e-14       3.59392e-09       4.87785e-01       2.12744e-01       4.87785e-01      
 7.11000e-01       3.13934e-06       4.16090e-07       1.04603e-14       3.76097e-09       4.87785e-01       2.19526e-01       4.87785e-01      
 7.20000e-01       3.26790e-06       4.44924e-07       1.04936e-14       3.93121e-09       4.87785e-01       2.26365e-01       4.87785e-01      
 7.29000e-01       3.39673e-06       4.74916e-07       1.05250e-14       4.10460e-09       4.87785e-01       2.33257e-01       4.87785e-01      
 7.38000e-01       3.52571e-06       5.06069e-07       1.05545e-14       4.28110e-09       4.87785e-01       2.40200e-01       4.87785e-01      
 7.47000e-01       3.65477e-06       5.38382e-07       1.05824e-14       4.46067e-09       4.87785e-01       2.47190e-01       4.87785e-01      
 7.56000e-01       3.78383e-06       5.71857e-07       1.06088e-14       4.64327e-09       4.87785e-01       2.54225e-01       4.87785e-01      
 7.65000e-01       3.91280e-06       6.06493e-07       1.06337e-14       4.82888e-09       4.87785e-01       2.61301e-01       4.87785e-01      
 7.74000e-01       4.04163e-06       6.42289e-07       1.06573e-14       5.01747e-09       4.87785e-01       2.68417e-01       4.87785e-01      
 7.83000e-01       4.17027e-06       6.79244e-07       1.06797e-14       5.20902e-09       4.87785e-01       2.75570e-01       4.87785e-01      
 7.92000e-01       4.29866e-06       7.17355e-07       1.07010e-14       5.40351e-09       4.87785e-01       2.82758e-01       4.87785e-01      
 8.01000e-01       4.42676e-06       7.56620e-07       1.07212e-14       5.60094e-09       4.87785e-01       2.89980e-01       4.87785e-01      
 8.10000e-01       4.55453e-06       7.97036e-07       1.07405e-14       5.80128e-09       4.87785e-01       2.97233e-01       4.87785e-01      
 8.19000e-01       4.68194e-06       8.38601e-07       1.07589e-14       6.00454e-09       4.87785e-01       3.04517e-01       4.87785e-01      
 8.28000e-01       4.80896e-06       8.81311e-07       1.07765e-14       6.21071e-09       4.87785e-01       3.11829e-01       4.87785e-01      
 8.37000e-01       4.93556e-06       9.25161e-07       1.07933e-14       6.41980e-09       4.87785e-01       3.19169e-01       4.87785e-01      
 8.46000e-01       5.06171e-06       9.70149e-07       1.08094e-14       6.63180e-09       4.87785e-01       3.26535e-01       4.87785e-01      
 8.55000e-01       5.18739e-06       1.01627e-06       1.08248e-14       6.84672e-09       4.87785e-01       3.33927e-01       4.87785e-01      
 8.64000e-01       5.31259e-06       1.06352e-06       1.08396e-14       7.06457e-09       4.87785e-01       3.41343e-01       4.87785e-01      
 8.73000e-01       5.43727e-06       1.11189e-06       1.08539e-14       7.28537e-09       4.87785e-01       3.48783e-01       4.87785e-01      
 8.82000e-01       5.56142e-06       1.16139e-06       1.08675e-14       7.50912e-09       4.87785e-01       3.56246e-01       4.87785e-01      
 8.91000e-01       5.68503e-06       1.21200e-06       1.08807e-14       7.73585e-09       4.87785e-01       3.63732e-01       4.87785e-01      
 9.00000e-01       5.80808e-06       1.26372e-06       1.08934e-14       7.96557e-09       4.87785e-01       3.71239e-01       4.87785e-01      
 9.09000e-01       5.93055e-06       1.31654e-06       1.09057e-14       8.19832e-09       4.87785e-01       3.78767e-01       4.87785e-01      
 9.18000e-01       6.05243e-06       1.37046e-06       1.09176e-14       8.43410e-09       4.87785e-01       3.86316e-01       4.87785e-01      
 9.27000e-01       6.17369e-06       1.42548e-06       1.09290e-14       8.67296e-09       4.87785e-01       3.93885e-01       4.87785e-01      
 9.36000e-01       6.29434e-06       1.48158e-06       1.09401e-14       8.91491e-09       4.87785e-01       4.01474e-01       4.87785e-01      
 9.45000e-01       6.41435e-06       1.53877e-06       1.09509e-14       9.16000e-09       4.87785e-01       4.09083e-01       4.87785e-01      
 9.54000e-01       6.53370e-06       1.59704e-06       1.09613e-14       9.40825e-09       4.87785e-01       4.16711e-01       4.87785e-01      
 9.63000e-01       6.65239e-06       1.65637e-06       1.09714e-14       9.65970e-09       4.87785e-01       4.24358e-01       4.87785e-01      
 9.72000e-01       6.77039e-06       1.71677e-06       1.09812e-14       9.91438e-09       4.87785e-01       4.32024e-01       4.87785e-01      
 9.81000e-01       6.88771e-06       1.77824e-06       1.09908e-14       1.01724e-08       4.87785e-01       4.39708e-01       4.87785e-01      
 9.90000e-01       7.00431e-06       1.84075e-06       1.10001e-14       1.04336e-08       4.87785e-01       4.47411e-01       4.87785e-01      
 9.99000e-01       7.12019e-06       1.90431e-06       1.10091e-14       1.06983e-08       4.87785e-01       4.55133e-01       4.87785e-01      
 1.00800e+00       7.23533e-06       1.96891e-06       1.10179e-14       1.09664e-08       4.87785e-01       4.62872e-01       4.87785e-01      
 1.01700e+00       7.34972e-06       2.03454e-06       1.10265e-14       1.12379e-08       4.87785e-01       4.70630e-01       4.87785e-01      
 1.02600e+00       7.46334e-06       2.10119e-06       1.10349e-14       1.15130e-08       4.87785e-01       4.78405e-01       4.87785e-01      
 1.03500e+00       7.57618e-06       2.16887e-06       1.10431e-14       1.17916e-08       4.87785e-01       4.86199e-01       4.87785e-01      
 1.04400e+00       7.68823e-06       2.23756e-06       1.10511e-14       1.20739e-08       4.87785e-01       4.94010e-01       4.87785e-01      
 1.05300e+00       7.79947e-06       2.30725e-06       1.10589e-14       1.23598e-08       4.87785e-01       5.01840e-01       4.87785e-01      
 1.06200e+00       7.90989e-06       2.37794e-06       1.10665e-14       1.26495e-08       4.87785e-01       5.09687e-01       4.87785e-01      
 1.07100e+00       8.01947e-06       2.44963e-06       1.10740e-14       1.29430e-08       4.87785e-01       5.17552e-01       4.87785e-01      
 1.08000e+00       8.12821e-06       2.52229e-06       1.10812e-14       1.32404e-08       4.87785e-01       5.25435e-01       4.87785e-01      
 1.08900e+00       8.23608e-06       2.59593e-06       1.10884e-14       1.35418e-08       4.87785e-01       5.33335e-01       4.87785e-01      
 1.09800e+00       8.34308e-06       2.67053e-06       1.10954e-14       1.38471e-08       4.87785e-01       5.41254e-01       4.87785e-01      
 1.10700e+00       8.44919e-06       2.74610e-06       1.11022e-14       1.41566e-08       4.87785e-01       5.49190e-01       4.87785e-01      
 1.11600e+00       8.55440e-06       2.82261e-06       1.11089e-14       1.44703e-08       4.87785e-01       5.57145e-01       4.87785e-01      
 1.12500e+00       8.65869e-06       2.90007e-06       1.11155e-14       1.47882e-08       4.87785e-01       5.65117e-01       4.87785e-01      
 1.13400e+00       8.76206e-06       2.97846e-06       1.11220e-14       1.51105e-08       4.87785e-01       5.73108e-01       4.87785e-01      
 1.14300e+00       8.86448e-06       3.05778e-06       1.11283e-14       1.54372e-08       4.87785e-01       5.81116e-01       4.87785e-01      
 1.15200e+00       8.96596e-06       3.13802e-06       1.11345e-14       1.57684e-08       4.87785e-01       5.89143e-01       4.87785e-01      
 1.16100e+00       9.06648e-06       3.21916e-06       1.11406e-14       1.61042e-08       4.87785e-01       5.97187e-01       4.87785e-01      
 1.17000e+00       9.16602e-06       3.30121e-06       1.11466e-14       1.64448e-08       4.87785e-01       6.05250e-01       4.87785e-01      
 1.17900e+00       9.26458e-06       3.38414e-06       1.11525e-14       1.67902e-08       4.87785e-01       6.13331e-01       4.87785e-01      
 1.18800e+00       9.36214e-06       3.46796e-06       1.11583e-14       1.71406e-08       4.87785e-01       6.21431e-01       4.87785e-01      
 1.19700e+00       9.45870e-06       3.55266e-06       1.11640e-14       1.74960e-08       4.87785e-01       6.29549e-01       4.87785e-01      
 1.20600e+00       9.55424e-06       3.63821e-06       1.11696e-14       1.78565e-08       4.87785e-01       6.37686e-01       4.87785e-01      
 1.21500e+00       9.64876e-06       3.72463e-06       1.11751e-14       1.82224e-08       4.87785e-01       6.45841e-01       4.87785e-01      
