
dc (V)            getData("M0:gm    getData("M0:id    getData("M0:cg    getData("M0:gd    getData("M0:vt    getData("M0:vd    getData("M0:vt

 0.00000e+00       9.01742e-13       4.65703e-14       3.91824e-15       6.94263e-16       4.86066e-01       3.93305e-02       4.86066e-01      
 9.00000e-03       1.20927e-12       5.51162e-14       3.90218e-15       9.31150e-16       4.86066e-01       3.93305e-02       4.86066e-01      
 1.80000e-02       1.62158e-12       6.69759e-14       3.88680e-15       1.24881e-15       4.86066e-01       3.93306e-02       4.86066e-01      
 2.70000e-02       2.17433e-12       8.32364e-14       3.87215e-15       1.67477e-15       4.86066e-01       3.93306e-02       4.86066e-01      
 3.60000e-02       2.91525e-12       1.05358e-13       3.85828e-15       2.24590e-15       4.86066e-01       3.93307e-02       4.86066e-01      
 4.50000e-02       3.90829e-12       1.35302e-13       3.84525e-15       3.01161e-15       4.86066e-01       3.93308e-02       4.86066e-01      
 5.40000e-02       5.23902e-12       1.75698e-13       3.83316e-15       4.03808e-15       4.86066e-01       3.93309e-02       4.86066e-01      
 6.30000e-02       7.02195e-12       2.30070e-13       3.82210e-15       5.41396e-15       4.86066e-01       3.93311e-02       4.86066e-01      
 7.20000e-02       9.41025e-12       3.03139e-13       3.81220e-15       7.25792e-15       4.86066e-01       3.93314e-02       4.86066e-01      
 8.10000e-02       1.26087e-11       4.01229e-13       3.80363e-15       9.72880e-15       4.86066e-01       3.93317e-02       4.86066e-01      
 9.00000e-02       1.68907e-11       5.32801e-13       3.79659e-15       1.30391e-14       4.86066e-01       3.93322e-02       4.86066e-01      
 9.90000e-02       2.26216e-11       7.09171e-13       3.79130e-15       1.74730e-14       4.86066e-01       3.93328e-02       4.86066e-01      
 1.08000e-01       3.02885e-11       9.45469e-13       3.78807e-15       2.34102e-14       4.86066e-01       3.93336e-02       4.86066e-01      
 1.17000e-01       4.05404e-11       1.26191e-12       3.78725e-15       3.13581e-14       4.86066e-01       3.93347e-02       4.86066e-01      
 1.26000e-01       5.42399e-11       1.68545e-12       3.78915e-15       4.19934e-14       4.86066e-01       3.93361e-02       4.86066e-01      
 1.35000e-01       7.25325e-11       2.25206e-12       3.79425e-15       5.62180e-14       4.86066e-01       3.93380e-02       4.86066e-01      
 1.44000e-01       9.69411e-11       3.00961e-12       3.80325e-15       7.52329e-14       4.86066e-01       3.93406e-02       4.86066e-01      
 1.53000e-01       1.29481e-10       4.02182e-12       3.81684e-15       1.00635e-13       4.86066e-01       3.93441e-02       4.86066e-01      
 1.62000e-01       1.72814e-10       5.37333e-12       3.83581e-15       1.34546e-13       4.86066e-01       3.93487e-02       4.86066e-01      
 1.71000e-01       2.30447e-10       7.17639e-12       3.86105e-15       1.79777e-13       4.86066e-01       3.93548e-02       4.86066e-01      
 1.80000e-01       3.06990e-10       9.57956e-12       3.89358e-15       2.40043e-13       4.86066e-01       3.93630e-02       4.86066e-01      
 1.89000e-01       4.08473e-10       1.27790e-11       3.93451e-15       3.20250e-13       4.86066e-01       3.93739e-02       4.86066e-01      
 1.98000e-01       5.42755e-10       1.70332e-11       3.98505e-15       4.26843e-13       4.86066e-01       3.93884e-02       4.86066e-01      
 2.07000e-01       7.20032e-10       2.26813e-11       4.04651e-15       5.68270e-13       4.86066e-01       3.94076e-02       4.86066e-01      
 2.16000e-01       9.53450e-10       3.01672e-11       4.12021e-15       7.55554e-13       4.86066e-01       3.94330e-02       4.86066e-01      
 2.25000e-01       1.25985e-09       4.00690e-11       4.20753e-15       1.00300e-12       4.86066e-01       3.94666e-02       4.86066e-01      
 2.34000e-01       1.66066e-09       5.31366e-11       4.30979e-15       1.32907e-12       4.86066e-01       3.95108e-02       4.86066e-01      
 2.43000e-01       2.18288e-09       7.03369e-11       4.42824e-15       1.75743e-12       4.86066e-01       3.95689e-02       4.86066e-01      
 2.52000e-01       2.86023e-09       9.29094e-11       4.56401e-15       2.31813e-12       4.86066e-01       3.96448e-02       4.86066e-01      
 2.61000e-01       3.73439e-09       1.22432e-10       4.71805e-15       3.04906e-12       4.86066e-01       3.97438e-02       4.86066e-01      
 2.70000e-01       4.85619e-09       1.60898e-10       4.89106e-15       3.99733e-12       4.86066e-01       3.98719e-02       4.86066e-01      
 2.79000e-01       6.28687e-09       2.10805e-10       5.08348e-15       5.22088e-12       4.86066e-01       4.00371e-02       4.86066e-01      
 2.88000e-01       8.09910e-09       2.75252e-10       5.29547e-15       6.78987e-12       4.86066e-01       4.02485e-02       4.86066e-01      
 2.97000e-01       1.03778e-08       3.58047e-10       5.52683e-15       8.78783e-12       4.86066e-01       4.05170e-02       4.86066e-01      
 3.06000e-01       1.32203e-08       4.63819e-10       5.77705e-15       1.13123e-11       4.86066e-01       4.08551e-02       4.86066e-01      
 3.15000e-01       1.67364e-08       5.98130e-10       6.04526e-15       1.44745e-11       4.86066e-01       4.12772e-02       4.86066e-01      
 3.24000e-01       2.10469e-08       7.67580e-10       6.33029e-15       1.83987e-11       4.86066e-01       4.17985e-02       4.86066e-01      
 3.33000e-01       2.62819e-08       9.79901e-10       6.63066e-15       2.32192e-11       4.86066e-01       4.24353e-02       4.86066e-01      
 3.42000e-01       3.25778e-08       1.24403e-09       6.94462e-15       2.90774e-11       4.86066e-01       4.32041e-02       4.86066e-01      
 3.51000e-01       4.00729e-08       1.57013e-09       7.27019e-15       3.61167e-11       4.86066e-01       4.41208e-02       4.86066e-01      
 3.60000e-01       4.89036e-08       1.96963e-09       7.60521e-15       4.44777e-11       4.86066e-01       4.52002e-02       4.86066e-01      
 3.69000e-01       5.91990e-08       2.45514e-09       7.94742e-15       5.42929e-11       4.86066e-01       4.64548e-02       4.86066e-01      
 3.78000e-01       7.10782e-08       3.04038e-09       8.29447e-15       6.56819e-11       4.86066e-01       4.78948e-02       4.86066e-01      
 3.87000e-01       8.46485e-08       3.74011e-09       8.64401e-15       7.87481e-11       4.86066e-01       4.95276e-02       4.86066e-01      
 3.96000e-01       1.00006e-07       4.56999e-09       8.99372e-15       9.35772e-11       4.86066e-01       5.13574e-02       4.86066e-01      
 4.05000e-01       1.17240e-07       5.54652e-09       9.34140e-15       1.10238e-10       4.86066e-01       5.33862e-02       4.86066e-01      
 4.14000e-01       1.36436e-07       6.68697e-09       9.68498e-15       1.28782e-10       4.86066e-01       5.56136e-02       4.86066e-01      
 4.23000e-01       1.57685e-07       8.00941e-09       1.00226e-14       1.49251e-10       4.86066e-01       5.80379e-02       4.86066e-01      
 4.32000e-01       1.81085e-07       9.53275e-09       1.03525e-14       1.71675e-10       4.86066e-01       6.06562e-02       4.86066e-01      
 4.41000e-01       2.06742e-07       1.12768e-08       1.06732e-14       1.96082e-10       4.86066e-01       6.34653e-02       4.86066e-01      
 4.50000e-01       2.34775e-07       1.32625e-08       1.09835e-14       2.22494e-10       4.86066e-01       6.64619e-02       4.86066e-01      
 4.59000e-01       2.65308e-07       1.55117e-08       1.12825e-14       2.50933e-10       4.86066e-01       6.96429e-02       4.86066e-01      
 4.68000e-01       2.98467e-07       1.80474e-08       1.15693e-14       2.81425e-10       4.86066e-01       7.30056e-02       4.86066e-01      
 4.77000e-01       3.34373e-07       2.08940e-08       1.18434e-14       3.13992e-10       4.86066e-01       7.65474e-02       4.86066e-01      
 4.86000e-01       3.73136e-07       2.40765e-08       1.21045e-14       3.48658e-10       4.86066e-01       8.02661e-02       4.86066e-01      
 4.95000e-01       4.14849e-07       2.76212e-08       1.23523e-14       3.85449e-10       4.86066e-01       8.41595e-02       4.86066e-01      
 5.04000e-01       4.59581e-07       3.15550e-08       1.25869e-14       4.24385e-10       4.86066e-01       8.82253e-02       4.86066e-01      
 5.13000e-01       5.07377e-07       3.59051e-08       1.28084e-14       4.65485e-10       4.86066e-01       9.24611e-02       4.86066e-01      
 5.22000e-01       5.58251e-07       4.06994e-08       1.30171e-14       5.08764e-10       4.86066e-01       9.68642e-02       4.86066e-01      
 5.31000e-01       6.12188e-07       4.59654e-08       1.32133e-14       5.54232e-10       4.86066e-01       1.01431e-01       4.86066e-01      
 5.40000e-01       6.69140e-07       5.17305e-08       1.33974e-14       6.01895e-10       4.86066e-01       1.06159e-01       4.86066e-01      
 5.49000e-01       7.29036e-07       5.80215e-08       1.35699e-14       6.51750e-10       4.86066e-01       1.11043e-01       4.86066e-01      
 5.58000e-01       7.91775e-07       6.48646e-08       1.37313e-14       7.03790e-10       4.86066e-01       1.16080e-01       4.86066e-01      
 5.67000e-01       8.57235e-07       7.22847e-08       1.38823e-14       7.58004e-10       4.86066e-01       1.21263e-01       4.86066e-01      
 5.76000e-01       9.25275e-07       8.03057e-08       1.40233e-14       8.14374e-10       4.86066e-01       1.26588e-01       4.86066e-01      
 5.85000e-01       9.95739e-07       8.89501e-08       1.41549e-14       8.72876e-10       4.86066e-01       1.32050e-01       4.86066e-01      
 5.94000e-01       1.06846e-06       9.82390e-08       1.42777e-14       9.33485e-10       4.86066e-01       1.37642e-01       4.86066e-01      
 6.03000e-01       1.14326e-06       1.08192e-07       1.43923e-14       9.96170e-10       4.86066e-01       1.43359e-01       4.86066e-01      
 6.12000e-01       1.21997e-06       1.18827e-07       1.44991e-14       1.06090e-09       4.86066e-01       1.49194e-01       4.86066e-01      
 6.21000e-01       1.29841e-06       1.30160e-07       1.45988e-14       1.12764e-09       4.86066e-01       1.55142e-01       4.86066e-01      
 6.30000e-01       1.37841e-06       1.42206e-07       1.46918e-14       1.19635e-09       4.86066e-01       1.61196e-01       4.86066e-01      
 6.39000e-01       1.45979e-06       1.54979e-07       1.47786e-14       1.26700e-09       4.86066e-01       1.67351e-01       4.86066e-01      
 6.48000e-01       1.54239e-06       1.68489e-07       1.48597e-14       1.33955e-09       4.86066e-01       1.73601e-01       4.86066e-01      
 6.57000e-01       1.62606e-06       1.82748e-07       1.49354e-14       1.41396e-09       4.86066e-01       1.79940e-01       4.86066e-01      
 6.66000e-01       1.71066e-06       1.97764e-07       1.50062e-14       1.49020e-09       4.86066e-01       1.86363e-01       4.86066e-01      
 6.75000e-01       1.79605e-06       2.13546e-07       1.50725e-14       1.56823e-09       4.86066e-01       1.92865e-01       4.86066e-01      
 6.84000e-01       1.88211e-06       2.30098e-07       1.51345e-14       1.64803e-09       4.86066e-01       1.99440e-01       4.86066e-01      
 6.93000e-01       1.96872e-06       2.47428e-07       1.51927e-14       1.72955e-09       4.86066e-01       2.06085e-01       4.86066e-01      
 7.02000e-01       2.05578e-06       2.65539e-07       1.52472e-14       1.81277e-09       4.86066e-01       2.12795e-01       4.86066e-01      
 7.11000e-01       2.14320e-06       2.84436e-07       1.52985e-14       1.89767e-09       4.86066e-01       2.19567e-01       4.86066e-01      
 7.20000e-01       2.23090e-06       3.04120e-07       1.53467e-14       1.98421e-09       4.86066e-01       2.26395e-01       4.86066e-01      
 7.29000e-01       2.31880e-06       3.24595e-07       1.53921e-14       2.07238e-09       4.86066e-01       2.33277e-01       4.86066e-01      
 7.38000e-01       2.40682e-06       3.45861e-07       1.54349e-14       2.16215e-09       4.86066e-01       2.40209e-01       4.86066e-01      
 7.47000e-01       2.49492e-06       3.67920e-07       1.54753e-14       2.25351e-09       4.86066e-01       2.47190e-01       4.86066e-01      
 7.56000e-01       2.58304e-06       3.90771e-07       1.55135e-14       2.34644e-09       4.86066e-01       2.54214e-01       4.86066e-01      
 7.65000e-01       2.67113e-06       4.14416e-07       1.55496e-14       2.44092e-09       4.86066e-01       2.61281e-01       4.86066e-01      
 7.74000e-01       2.75915e-06       4.38853e-07       1.55838e-14       2.53695e-09       4.86066e-01       2.68388e-01       4.86066e-01      
 7.83000e-01       2.84706e-06       4.64082e-07       1.56163e-14       2.63450e-09       4.86066e-01       2.75532e-01       4.86066e-01      
 7.92000e-01       2.93483e-06       4.90101e-07       1.56472e-14       2.73359e-09       4.86066e-01       2.82713e-01       4.86066e-01      
 8.01000e-01       3.02243e-06       5.16909e-07       1.56766e-14       2.83419e-09       4.86066e-01       2.89927e-01       4.86066e-01      
 8.10000e-01       3.10984e-06       5.44505e-07       1.57046e-14       2.93631e-09       4.86066e-01       2.97173e-01       4.86066e-01      
 8.19000e-01       3.19703e-06       5.72886e-07       1.57313e-14       3.03994e-09       4.86066e-01       3.04451e-01       4.86066e-01      
 8.28000e-01       3.28398e-06       6.02051e-07       1.57568e-14       3.14508e-09       4.86066e-01       3.11758e-01       4.86066e-01      
 8.37000e-01       3.37067e-06       6.31997e-07       1.57812e-14       3.25173e-09       4.86066e-01       3.19093e-01       4.86066e-01      
 8.46000e-01       3.45709e-06       6.62722e-07       1.58045e-14       3.35990e-09       4.86066e-01       3.26456e-01       4.86066e-01      
 8.55000e-01       3.54322e-06       6.94223e-07       1.58269e-14       3.46959e-09       4.86066e-01       3.33845e-01       4.86066e-01      
 8.64000e-01       3.62904e-06       7.26498e-07       1.58485e-14       3.58080e-09       4.86066e-01       3.41259e-01       4.86066e-01      
 8.73000e-01       3.71454e-06       7.59544e-07       1.58691e-14       3.69355e-09       4.86066e-01       3.48698e-01       4.86066e-01      
 8.82000e-01       3.79972e-06       7.93358e-07       1.58890e-14       3.80784e-09       4.86066e-01       3.56161e-01       4.86066e-01      
 8.91000e-01       3.88454e-06       8.27937e-07       1.59082e-14       3.92368e-09       4.86066e-01       3.63647e-01       4.86066e-01      
 9.00000e-01       3.96902e-06       8.63278e-07       1.59267e-14       4.04108e-09       4.86066e-01       3.71156e-01       4.86066e-01      
 9.09000e-01       4.05312e-06       8.99377e-07       1.59445e-14       4.16005e-09       4.86066e-01       3.78687e-01       4.86066e-01      
 9.18000e-01       4.13685e-06       9.36232e-07       1.59617e-14       4.28061e-09       4.86066e-01       3.86239e-01       4.86066e-01      
 9.27000e-01       4.22020e-06       9.73838e-07       1.59784e-14       4.40278e-09       4.86066e-01       3.93813e-01       4.86066e-01      
 9.36000e-01       4.30314e-06       1.01219e-06       1.59946e-14       4.52656e-09       4.86066e-01       4.01408e-01       4.86066e-01      
 9.45000e-01       4.38567e-06       1.05129e-06       1.60102e-14       4.65198e-09       4.86066e-01       4.09023e-01       4.86066e-01      
 9.54000e-01       4.46779e-06       1.09113e-06       1.60254e-14       4.77906e-09       4.86066e-01       4.16658e-01       4.86066e-01      
 9.63000e-01       4.54948e-06       1.13171e-06       1.60401e-14       4.90781e-09       4.86066e-01       4.24314e-01       4.86066e-01      
 9.72000e-01       4.63072e-06       1.17302e-06       1.60544e-14       5.03826e-09       4.86066e-01       4.31989e-01       4.86066e-01      
 9.81000e-01       4.71152e-06       1.21506e-06       1.60683e-14       5.17043e-09       4.86066e-01       4.39684e-01       4.86066e-01      
 9.90000e-01       4.79186e-06       1.25782e-06       1.60818e-14       5.30433e-09       4.86066e-01       4.47399e-01       4.86066e-01      
 9.99000e-01       4.87172e-06       1.30131e-06       1.60950e-14       5.44001e-09       4.86066e-01       4.55133e-01       4.86066e-01      
 1.00800e+00       4.95111e-06       1.34551e-06       1.61078e-14       5.57748e-09       4.86066e-01       4.62886e-01       4.86066e-01      
 1.01700e+00       5.03001e-06       1.39042e-06       1.61204e-14       5.71677e-09       4.86066e-01       4.70658e-01       4.86066e-01      
 1.02600e+00       5.10841e-06       1.43605e-06       1.61325e-14       5.85790e-09       4.86066e-01       4.78450e-01       4.86066e-01      
 1.03500e+00       5.18629e-06       1.48237e-06       1.61445e-14       6.00092e-09       4.86066e-01       4.86260e-01       4.86066e-01      
 1.04400e+00       5.26366e-06       1.52940e-06       1.61561e-14       6.14584e-09       4.86066e-01       4.94090e-01       4.86066e-01      
 1.05300e+00       5.34049e-06       1.57711e-06       1.61674e-14       6.29270e-09       4.86066e-01       5.01938e-01       4.86066e-01      
 1.06200e+00       5.41679e-06       1.62552e-06       1.61785e-14       6.44155e-09       4.86066e-01       5.09805e-01       4.86066e-01      
 1.07100e+00       5.49253e-06       1.67461e-06       1.61894e-14       6.59240e-09       4.86066e-01       5.17691e-01       4.86066e-01      
 1.08000e+00       5.56772e-06       1.72438e-06       1.62000e-14       6.74530e-09       4.86066e-01       5.25596e-01       4.86066e-01      
 1.08900e+00       5.64234e-06       1.77483e-06       1.62104e-14       6.90028e-09       4.86066e-01       5.33520e-01       4.86066e-01      
 1.09800e+00       5.71637e-06       1.82594e-06       1.62206e-14       7.05739e-09       4.86066e-01       5.41463e-01       4.86066e-01      
 1.10700e+00       5.78982e-06       1.87772e-06       1.62306e-14       7.21667e-09       4.86066e-01       5.49424e-01       4.86066e-01      
 1.11600e+00       5.86267e-06       1.93015e-06       1.62403e-14       7.37817e-09       4.86066e-01       5.57405e-01       4.86066e-01      
 1.12500e+00       5.93491e-06       1.98324e-06       1.62499e-14       7.54191e-09       4.86066e-01       5.65405e-01       4.86066e-01      
 1.13400e+00       6.00654e-06       2.03698e-06       1.62593e-14       7.70796e-09       4.86066e-01       5.73424e-01       4.86066e-01      
 1.14300e+00       6.07754e-06       2.09135e-06       1.62685e-14       7.87637e-09       4.86066e-01       5.81462e-01       4.86066e-01      
 1.15200e+00       6.14791e-06       2.14637e-06       1.62776e-14       8.04717e-09       4.86066e-01       5.89519e-01       4.86066e-01      
 1.16100e+00       6.21763e-06       2.20201e-06       1.62864e-14       8.22043e-09       4.86066e-01       5.97595e-01       4.86066e-01      
 1.17000e+00       6.28671e-06       2.25828e-06       1.62952e-14       8.39620e-09       4.86066e-01       6.05690e-01       4.86066e-01      
 1.17900e+00       6.35513e-06       2.31517e-06       1.63037e-14       8.57454e-09       4.86066e-01       6.13805e-01       4.86066e-01      
 1.18800e+00       6.42288e-06       2.37267e-06       1.63121e-14       8.75551e-09       4.86066e-01       6.21939e-01       4.86066e-01      
 1.19700e+00       6.48996e-06       2.43078e-06       1.63204e-14       8.93917e-09       4.86066e-01       6.30093e-01       4.86066e-01      
 1.20600e+00       6.55635e-06       2.48948e-06       1.63285e-14       9.12558e-09       4.86066e-01       6.38266e-01       4.86066e-01      
 1.21500e+00       6.62206e-06       2.54879e-06       1.63365e-14       9.31481e-09       4.86066e-01       6.46459e-01       4.86066e-01      
