
dc (V)            getData("M0:gm    getData("M0:id    getData("M0:cg    getData("M0:gd    getData("M0:vt    getData("M0:vd    getData("M0:vt

 0.00000e+00       3.18094e-12       1.17125e-13       1.16773e-15       7.34186e-15       4.94426e-01       4.09600e-02       4.94426e-01      
 9.00000e-03       4.25750e-12       1.49488e-13       1.16335e-15       9.82776e-15       4.94426e-01       4.09601e-02       4.94426e-01      
 1.80000e-02       5.69812e-12       1.93200e-13       1.15914e-15       1.31549e-14       4.94426e-01       4.09601e-02       4.94426e-01      
 2.70000e-02       7.62572e-12       2.52057e-13       1.15511e-15       1.76077e-14       4.94426e-01       4.09602e-02       4.94426e-01      
 3.60000e-02       1.02047e-11       3.31140e-13       1.15128e-15       2.35666e-14       4.94426e-01       4.09602e-02       4.94426e-01      
 4.50000e-02       1.36547e-11       4.37247e-13       1.14766e-15       3.15404e-14       4.94426e-01       4.09603e-02       4.94426e-01      
 5.40000e-02       1.82694e-11       5.79472e-13       1.14426e-15       4.22094e-14       4.94426e-01       4.09604e-02       4.94426e-01      
 6.30000e-02       2.44408e-11       7.69976e-13       1.14112e-15       5.64832e-14       4.94426e-01       4.09606e-02       4.94426e-01      
 7.20000e-02       3.26926e-11       1.02501e-12       1.13825e-15       7.55772e-14       4.94426e-01       4.09608e-02       4.94426e-01      
 8.10000e-02       4.37237e-11       1.36631e-12       1.13571e-15       1.01116e-13       4.94426e-01       4.09611e-02       4.94426e-01      
 9.00000e-02       5.84663e-11       1.82287e-12       1.13353e-15       1.35268e-13       4.94426e-01       4.09615e-02       4.94426e-01      
 9.90000e-02       7.81634e-11       2.43345e-12       1.13177e-15       1.80929e-13       4.94426e-01       4.09620e-02       4.94426e-01      
 1.08000e-01       1.04471e-10       3.24975e-12       1.13050e-15       2.41965e-13       4.94426e-01       4.09627e-02       4.94426e-01      
 1.17000e-01       1.39592e-10       4.34073e-12       1.12979e-15       3.23528e-13       4.94426e-01       4.09636e-02       4.94426e-01      
 1.26000e-01       1.86449e-10       5.79831e-12       1.12972e-15       4.32488e-13       4.94426e-01       4.09648e-02       4.94426e-01      
 1.35000e-01       2.48927e-10       7.74478e-12       1.13042e-15       5.77980e-13       4.94426e-01       4.09664e-02       4.94426e-01      
 1.44000e-01       3.32180e-10       1.03429e-11       1.13203e-15       7.72165e-13       4.94426e-01       4.09686e-02       4.94426e-01      
 1.53000e-01       4.43027e-10       1.38091e-11       1.13474e-15       1.03119e-12       4.94426e-01       4.09715e-02       4.94426e-01      
 1.62000e-01       5.90474e-10       1.84304e-11       1.13872e-15       1.37650e-12       4.94426e-01       4.09753e-02       4.94426e-01      
 1.71000e-01       7.86393e-10       2.45874e-11       1.14419e-15       1.83647e-12       4.94426e-01       4.09804e-02       4.94426e-01      
 1.80000e-01       1.04638e-09       3.27835e-11       1.15141e-15       2.44864e-12       4.94426e-01       4.09873e-02       4.94426e-01      
 1.89000e-01       1.39088e-09       4.36836e-11       1.16064e-15       3.26251e-12       4.94426e-01       4.09963e-02       4.94426e-01      
 1.98000e-01       1.84655e-09       5.81634e-11       1.17220e-15       4.34323e-12       4.94426e-01       4.10084e-02       4.94426e-01      
 2.07000e-01       2.44805e-09       7.73731e-11       1.18641e-15       5.77621e-12       4.94426e-01       4.10244e-02       4.94426e-01      
 2.16000e-01       3.24020e-09       1.02819e-10       1.20362e-15       7.67305e-12       4.94426e-01       4.10455e-02       4.94426e-01      
 2.25000e-01       4.28059e-09       1.36467e-10       1.22419e-15       1.01789e-11       4.94426e-01       4.10734e-02       4.94426e-01      
 2.34000e-01       5.64274e-09       1.80868e-10       1.24848e-15       1.34816e-11       4.94426e-01       4.11103e-02       4.94426e-01      
 2.43000e-01       7.41979e-09       2.39325e-10       1.27684e-15       1.78227e-11       4.94426e-01       4.11586e-02       4.94426e-01      
 2.52000e-01       9.72867e-09       3.16078e-10       1.30961e-15       2.35105e-11       4.94426e-01       4.12220e-02       4.94426e-01      
 2.61000e-01       1.27147e-08       4.16549e-10       1.34707e-15       3.09353e-11       4.94426e-01       4.13047e-02       4.94426e-01      
 2.70000e-01       1.65565e-08       5.47611e-10       1.38947e-15       4.05863e-11       4.94426e-01       4.14121e-02       4.94426e-01      
 2.79000e-01       2.14708e-08       7.17915e-10       1.43698e-15       5.30692e-11       4.94426e-01       4.15509e-02       4.94426e-01      
 2.88000e-01       2.77167e-08       9.38251e-10       1.48971e-15       6.91242e-11       4.94426e-01       4.17294e-02       4.94426e-01      
 2.97000e-01       3.55995e-08       1.22195e-09       1.54769e-15       8.96414e-11       4.94426e-01       4.19571e-02       4.94426e-01      
 3.06000e-01       4.54724e-08       1.58530e-09       1.61085e-15       1.15672e-10       4.94426e-01       4.22458e-02       4.94426e-01      
 3.15000e-01       5.77366e-08       2.04799e-09       1.67904e-15       1.48432e-10       4.94426e-01       4.26084e-02       4.94426e-01      
 3.24000e-01       7.28383e-08       2.63353e-09       1.75202e-15       1.89295e-10       4.94426e-01       4.30598e-02       4.94426e-01      
 3.33000e-01       9.12625e-08       3.36963e-09       1.82948e-15       2.39768e-10       4.94426e-01       4.36161e-02       4.94426e-01      
 3.42000e-01       1.13523e-07       4.28849e-09       1.91100e-15       3.01461e-10       4.94426e-01       4.42939e-02       4.94426e-01      
 3.51000e-01       1.40147e-07       5.42703e-09       1.99611e-15       3.76030e-10       4.94426e-01       4.51104e-02       4.94426e-01      
 3.60000e-01       1.71661e-07       6.82691e-09       2.08429e-15       4.65116e-10       4.94426e-01       4.60819e-02       4.94426e-01      
 3.69000e-01       2.08570e-07       8.53445e-09       2.17495e-15       5.70277e-10       4.94426e-01       4.72234e-02       4.94426e-01      
 3.78000e-01       2.51342e-07       1.06004e-08       2.26749e-15       6.92923e-10       4.94426e-01       4.85477e-02       4.94426e-01      
 3.87000e-01       3.00394e-07       1.30794e-08       2.36129e-15       8.34261e-10       4.94426e-01       5.00650e-02       4.94426e-01      
 3.96000e-01       3.56093e-07       1.60297e-08       2.45571e-15       9.95264e-10       4.94426e-01       5.17826e-02       4.94426e-01      
 4.05000e-01       4.18758e-07       1.95126e-08       2.55015e-15       1.17666e-09       4.94426e-01       5.37046e-02       4.94426e-01      
 4.14000e-01       4.88680e-07       2.35921e-08       2.64401e-15       1.37896e-09       4.94426e-01       5.58326e-02       4.94426e-01      
 4.23000e-01       5.66142e-07       2.83349e-08       2.73675e-15       1.60245e-09       4.94426e-01       5.81661e-02       4.94426e-01      
 4.32000e-01       6.51440e-07       3.38101e-08       2.82786e-15       1.84732e-09       4.94426e-01       6.07027e-02       4.94426e-01      
 4.41000e-01       7.44906e-07       4.00898e-08       2.91690e-15       2.11362e-09       4.94426e-01       6.34392e-02       4.94426e-01      
 4.50000e-01       8.46910e-07       4.72490e-08       3.00348e-15       2.40137e-09       4.94426e-01       6.63720e-02       4.94426e-01      
 4.59000e-01       9.57860e-07       5.53665e-08       3.08726e-15       2.71057e-09       4.94426e-01       6.94973e-02       4.94426e-01      
 4.68000e-01       1.07819e-06       6.45247e-08       3.16800e-15       3.04126e-09       4.94426e-01       7.28114e-02       4.94426e-01      
 4.77000e-01       1.20834e-06       7.48100e-08       3.24547e-15       3.39346e-09       4.94426e-01       7.63112e-02       4.94426e-01      
 4.86000e-01       1.34872e-06       8.63127e-08       3.31953e-15       3.76725e-09       4.94426e-01       7.99936e-02       4.94426e-01      
 4.95000e-01       1.49972e-06       9.91267e-08       3.39010e-15       4.16273e-09       4.94426e-01       8.38560e-02       4.94426e-01      
 5.04000e-01       1.66164e-06       1.13349e-07       3.45712e-15       4.58000e-09       4.94426e-01       8.78956e-02       4.94426e-01      
 5.13000e-01       1.83469e-06       1.29079e-07       3.52059e-15       5.01915e-09       4.94426e-01       9.21098e-02       4.94426e-01      
 5.22000e-01       2.01900e-06       1.46417e-07       3.58054e-15       5.48027e-09       4.94426e-01       9.64957e-02       4.94426e-01      
 5.31000e-01       2.21456e-06       1.65464e-07       3.63705e-15       5.96341e-09       4.94426e-01       1.01050e-01       4.94426e-01      
 5.40000e-01       2.42128e-06       1.86323e-07       3.69021e-15       6.46858e-09       4.94426e-01       1.05770e-01       4.94426e-01      
 5.49000e-01       2.63893e-06       2.09091e-07       3.74012e-15       6.99575e-09       4.94426e-01       1.10650e-01       4.94426e-01      
 5.58000e-01       2.86719e-06       2.33867e-07       3.78691e-15       7.54484e-09       4.94426e-01       1.15687e-01       4.94426e-01      
 5.67000e-01       3.10565e-06       2.60744e-07       3.83073e-15       8.11572e-09       4.94426e-01       1.20876e-01       4.94426e-01      
 5.76000e-01       3.35379e-06       2.89810e-07       3.87172e-15       8.70818e-09       4.94426e-01       1.26211e-01       4.94426e-01      
 5.85000e-01       3.61106e-06       3.21152e-07       3.91002e-15       9.32201e-09       4.94426e-01       1.31687e-01       4.94426e-01      
 5.94000e-01       3.87684e-06       3.54848e-07       3.94580e-15       9.95693e-09       4.94426e-01       1.37298e-01       4.94426e-01      
 6.03000e-01       4.15046e-06       3.90972e-07       3.97921e-15       1.06126e-08       4.94426e-01       1.43038e-01       4.94426e-01      
 6.12000e-01       4.43125e-06       4.29591e-07       4.01039e-15       1.12887e-08       4.94426e-01       1.48901e-01       4.94426e-01      
 6.21000e-01       4.71852e-06       4.70767e-07       4.03948e-15       1.19849e-08       4.94426e-01       1.54879e-01       4.94426e-01      
 6.30000e-01       5.01158e-06       5.14555e-07       4.06664e-15       1.27007e-08       4.94426e-01       1.60968e-01       4.94426e-01      
 6.39000e-01       5.30977e-06       5.61004e-07       4.09199e-15       1.34359e-08       4.94426e-01       1.67160e-01       4.94426e-01      
 6.48000e-01       5.61244e-06       6.10158e-07       4.11565e-15       1.41899e-08       4.94426e-01       1.73449e-01       4.94426e-01      
 6.57000e-01       5.91897e-06       6.62053e-07       4.13777e-15       1.49623e-08       4.94426e-01       1.79830e-01       4.94426e-01      
 6.66000e-01       6.22878e-06       7.16722e-07       4.15843e-15       1.57529e-08       4.94426e-01       1.86296e-01       4.94426e-01      
 6.75000e-01       6.54131e-06       7.74191e-07       4.17777e-15       1.65611e-08       4.94426e-01       1.92843e-01       4.94426e-01      
 6.84000e-01       6.85607e-06       8.34484e-07       4.19586e-15       1.73867e-08       4.94426e-01       1.99464e-01       4.94426e-01      
 6.93000e-01       7.17259e-06       8.97618e-07       4.21281e-15       1.82292e-08       4.94426e-01       2.06154e-01       4.94426e-01      
 7.02000e-01       7.49043e-06       9.63606e-07       4.22871e-15       1.90884e-08       4.94426e-01       2.12910e-01       4.94426e-01      
 7.11000e-01       7.80923e-06       1.03246e-06       4.24363e-15       1.99638e-08       4.94426e-01       2.19726e-01       4.94426e-01      
 7.20000e-01       8.12862e-06       1.10418e-06       4.25765e-15       2.08553e-08       4.94426e-01       2.26597e-01       4.94426e-01      
 7.29000e-01       8.44830e-06       1.17878e-06       4.27085e-15       2.17625e-08       4.94426e-01       2.33521e-01       4.94426e-01      
 7.38000e-01       8.76799e-06       1.25626e-06       4.28327e-15       2.26851e-08       4.94426e-01       2.40494e-01       4.94426e-01      
 7.47000e-01       9.08744e-06       1.33661e-06       4.29499e-15       2.36230e-08       4.94426e-01       2.47512e-01       4.94426e-01      
 7.56000e-01       9.40644e-06       1.41984e-06       4.30605e-15       2.45759e-08       4.94426e-01       2.54571e-01       4.94426e-01      
 7.65000e-01       9.72478e-06       1.50593e-06       4.31651e-15       2.55436e-08       4.94426e-01       2.61670e-01       4.94426e-01      
 7.74000e-01       1.00423e-05       1.59489e-06       4.32641e-15       2.65260e-08       4.94426e-01       2.68806e-01       4.94426e-01      
 7.83000e-01       1.03588e-05       1.68670e-06       4.33579e-15       2.75229e-08       4.94426e-01       2.75975e-01       4.94426e-01      
 7.92000e-01       1.06743e-05       1.78135e-06       4.34470e-15       2.85342e-08       4.94426e-01       2.83176e-01       4.94426e-01      
 8.01000e-01       1.09885e-05       1.87883e-06       4.35317e-15       2.95598e-08       4.94426e-01       2.90408e-01       4.94426e-01      
 8.10000e-01       1.13014e-05       1.97914e-06       4.36123e-15       3.05996e-08       4.94426e-01       2.97667e-01       4.94426e-01      
 8.19000e-01       1.16129e-05       2.08226e-06       4.36890e-15       3.16534e-08       4.94426e-01       3.04952e-01       4.94426e-01      
 8.28000e-01       1.19230e-05       2.18817e-06       4.37623e-15       3.27214e-08       4.94426e-01       3.12262e-01       4.94426e-01      
 8.37000e-01       1.22314e-05       2.29687e-06       4.38323e-15       3.38033e-08       4.94426e-01       3.19596e-01       4.94426e-01      
 8.46000e-01       1.25383e-05       2.40833e-06       4.38993e-15       3.48993e-08       4.94426e-01       3.26952e-01       4.94426e-01      
 8.55000e-01       1.28434e-05       2.52255e-06       4.39635e-15       3.60093e-08       4.94426e-01       3.34329e-01       4.94426e-01      
 8.64000e-01       1.31469e-05       2.63951e-06       4.40250e-15       3.71332e-08       4.94426e-01       3.41726e-01       4.94426e-01      
 8.73000e-01       1.34486e-05       2.75919e-06       4.40841e-15       3.82712e-08       4.94426e-01       3.49141e-01       4.94426e-01      
 8.82000e-01       1.37485e-05       2.88157e-06       4.41409e-15       3.94233e-08       4.94426e-01       3.56576e-01       4.94426e-01      
 8.91000e-01       1.40465e-05       3.00665e-06       4.41956e-15       4.05895e-08       4.94426e-01       3.64027e-01       4.94426e-01      
 9.00000e-01       1.43426e-05       3.13440e-06       4.42483e-15       4.17699e-08       4.94426e-01       3.71496e-01       4.94426e-01      
 9.09000e-01       1.46369e-05       3.26481e-06       4.42991e-15       4.29645e-08       4.94426e-01       3.78980e-01       4.94426e-01      
 9.18000e-01       1.49291e-05       3.39785e-06       4.43482e-15       4.41734e-08       4.94426e-01       3.86481e-01       4.94426e-01      
 9.27000e-01       1.52195e-05       3.53352e-06       4.43956e-15       4.53968e-08       4.94426e-01       3.93997e-01       4.94426e-01      
 9.36000e-01       1.55078e-05       3.67179e-06       4.44415e-15       4.66347e-08       4.94426e-01       4.01527e-01       4.94426e-01      
 9.45000e-01       1.57940e-05       3.81264e-06       4.44859e-15       4.78873e-08       4.94426e-01       4.09072e-01       4.94426e-01      
 9.54000e-01       1.60782e-05       3.95607e-06       4.45290e-15       4.91547e-08       4.94426e-01       4.16631e-01       4.94426e-01      
 9.63000e-01       1.63603e-05       4.10204e-06       4.45708e-15       5.04370e-08       4.94426e-01       4.24204e-01       4.94426e-01      
 9.72000e-01       1.66403e-05       4.25054e-06       4.46114e-15       5.17344e-08       4.94426e-01       4.31791e-01       4.94426e-01      
 9.81000e-01       1.69182e-05       4.40155e-06       4.46509e-15       5.30470e-08       4.94426e-01       4.39391e-01       4.94426e-01      
 9.90000e-01       1.71939e-05       4.55505e-06       4.46892e-15       5.43751e-08       4.94426e-01       4.47004e-01       4.94426e-01      
 9.99000e-01       1.74674e-05       4.71102e-06       4.47266e-15       5.57187e-08       4.94426e-01       4.54630e-01       4.94426e-01      
 1.00800e+00       1.77386e-05       4.86945e-06       4.47629e-15       5.70781e-08       4.94426e-01       4.62270e-01       4.94426e-01      
 1.01700e+00       1.80076e-05       5.03030e-06       4.47983e-15       5.84535e-08       4.94426e-01       4.69922e-01       4.94426e-01      
 1.02600e+00       1.82744e-05       5.19357e-06       4.48329e-15       5.98452e-08       4.94426e-01       4.77587e-01       4.94426e-01      
 1.03500e+00       1.85388e-05       5.35923e-06       4.48666e-15       6.12532e-08       4.94426e-01       4.85264e-01       4.94426e-01      
 1.04400e+00       1.88009e-05       5.52725e-06       4.48996e-15       6.26779e-08       4.94426e-01       4.92954e-01       4.94426e-01      
 1.05300e+00       1.90607e-05       5.69763e-06       4.49317e-15       6.41195e-08       4.94426e-01       5.00657e-01       4.94426e-01      
 1.06200e+00       1.93181e-05       5.87033e-06       4.49632e-15       6.55782e-08       4.94426e-01       5.08373e-01       4.94426e-01      
 1.07100e+00       1.95730e-05       6.04534e-06       4.49939e-15       6.70543e-08       4.94426e-01       5.16101e-01       4.94426e-01      
 1.08000e+00       1.98256e-05       6.22263e-06       4.50240e-15       6.85482e-08       4.94426e-01       5.23841e-01       4.94426e-01      
 1.08900e+00       2.00757e-05       6.40218e-06       4.50535e-15       7.00600e-08       4.94426e-01       5.31595e-01       4.94426e-01      
 1.09800e+00       2.03233e-05       6.58397e-06       4.50824e-15       7.15900e-08       4.94426e-01       5.39361e-01       4.94426e-01      
 1.10700e+00       2.05685e-05       6.76798e-06       4.51106e-15       7.31387e-08       4.94426e-01       5.47139e-01       4.94426e-01      
 1.11600e+00       2.08111e-05       6.95419e-06       4.51384e-15       7.47063e-08       4.94426e-01       5.54931e-01       4.94426e-01      
 1.12500e+00       2.10512e-05       7.14257e-06       4.51655e-15       7.62931e-08       4.94426e-01       5.62735e-01       4.94426e-01      
 1.13400e+00       2.12887e-05       7.33309e-06       4.51922e-15       7.78995e-08       4.94426e-01       5.70552e-01       4.94426e-01      
 1.14300e+00       2.15236e-05       7.52574e-06       4.52184e-15       7.95259e-08       4.94426e-01       5.78382e-01       4.94426e-01      
 1.15200e+00       2.17559e-05       7.72050e-06       4.52441e-15       8.11726e-08       4.94426e-01       5.86224e-01       4.94426e-01      
 1.16100e+00       2.19857e-05       7.91734e-06       4.52694e-15       8.28400e-08       4.94426e-01       5.94080e-01       4.94426e-01      
 1.17000e+00       2.22127e-05       8.11623e-06       4.52942e-15       8.45286e-08       4.94426e-01       6.01950e-01       4.94426e-01      
 1.17900e+00       2.24371e-05       8.31715e-06       4.53186e-15       8.62387e-08       4.94426e-01       6.09832e-01       4.94426e-01      
 1.18800e+00       2.26589e-05       8.52008e-06       4.53425e-15       8.79708e-08       4.94426e-01       6.17728e-01       4.94426e-01      
 1.19700e+00       2.28779e-05       8.72499e-06       4.53661e-15       8.97254e-08       4.94426e-01       6.25637e-01       4.94426e-01      
 1.20600e+00       2.30943e-05       8.93187e-06       4.53893e-15       9.15028e-08       4.94426e-01       6.33560e-01       4.94426e-01      
 1.21500e+00       2.33079e-05       9.14067e-06       4.54121e-15       9.33037e-08       4.94426e-01       6.41496e-01       4.94426e-01      
