
dc (V)            getData("M0:gm    getData("M0:id    getData("M0:cg    getData("M0:gd    getData("M0:vt    getData("M0:vd    getData("M0:vt

 0.00000e+00       3.67173e-12       1.32434e-13       1.03026e-15       9.53708e-15       4.95833e-01       4.12821e-02       4.95833e-01      
 9.00000e-03       4.91245e-12       1.69921e-13       1.02646e-15       1.27612e-14       4.95833e-01       4.12821e-02       4.95833e-01      
 1.80000e-02       6.57208e-12       2.20469e-13       1.02282e-15       1.70746e-14       4.95833e-01       4.12822e-02       4.95833e-01      
 2.70000e-02       8.79187e-12       2.88448e-13       1.01933e-15       2.28451e-14       4.95833e-01       4.12822e-02       4.95833e-01      
 3.60000e-02       1.17606e-11       3.79702e-13       1.01600e-15       3.05644e-14       4.95833e-01       4.12823e-02       4.95833e-01      
 4.50000e-02       1.57305e-11       5.02048e-13       1.01285e-15       4.08897e-14       4.95833e-01       4.12824e-02       4.95833e-01      
 5.40000e-02       2.10384e-11       6.65936e-13       1.00990e-15       5.46997e-14       4.95833e-01       4.12825e-02       4.95833e-01      
 6.30000e-02       2.81342e-11       8.85337e-13       1.00716e-15       7.31684e-14       4.95833e-01       4.12826e-02       4.95833e-01      
 7.20000e-02       3.76185e-11       1.17892e-12       1.00466e-15       9.78645e-14       4.95833e-01       4.12828e-02       4.95833e-01      
 8.10000e-02       5.02924e-11       1.57161e-12       1.00243e-15       1.30883e-13       4.95833e-01       4.12831e-02       4.95833e-01      
 9.00000e-02       6.72244e-11       2.09671e-12       1.00051e-15       1.75021e-13       4.95833e-01       4.12835e-02       4.95833e-01      
 9.90000e-02       8.98384e-11       2.79866e-12       9.98943e-16       2.34012e-13       4.95833e-01       4.12840e-02       4.95833e-01      
 1.08000e-01       1.20031e-10       3.73674e-12       9.97791e-16       3.12836e-13       4.95833e-01       4.12847e-02       4.95833e-01      
 1.17000e-01       1.60324e-10       4.99002e-12       9.97121e-16       4.18132e-13       4.95833e-01       4.12855e-02       4.95833e-01      
 1.26000e-01       2.14064e-10       6.66379e-12       9.96985e-16       5.58744e-13       4.95833e-01       4.12867e-02       4.95833e-01      
 1.35000e-01       2.85696e-10       8.89819e-12       9.97495e-16       7.46436e-13       4.95833e-01       4.12883e-02       4.95833e-01      
 1.44000e-01       3.81116e-10       1.18796e-11       9.98787e-16       9.96857e-13       4.95833e-01       4.12904e-02       4.95833e-01      
 1.53000e-01       5.08126e-10       1.58558e-11       1.00100e-15       1.33079e-12       4.95833e-01       4.12932e-02       4.95833e-01      
 1.62000e-01       6.77028e-10       2.11553e-11       1.00430e-15       1.77581e-12       4.95833e-01       4.12970e-02       4.95833e-01      
 1.71000e-01       9.01397e-10       2.82138e-11       1.00886e-15       2.36843e-12       4.95833e-01       4.13020e-02       4.95833e-01      
 1.80000e-01       1.19907e-09       3.76072e-11       1.01489e-15       3.15692e-12       4.95833e-01       4.13086e-02       4.95833e-01      
 1.89000e-01       1.59343e-09       5.00963e-11       1.02264e-15       4.20495e-12       4.95833e-01       4.13174e-02       4.95833e-01      
 1.98000e-01       2.11496e-09       6.66828e-11       1.03236e-15       5.59627e-12       4.95833e-01       4.13291e-02       4.95833e-01      
 2.07000e-01       2.80334e-09       8.86826e-11       1.04434e-15       7.44073e-12       4.95833e-01       4.13447e-02       4.95833e-01      
 2.16000e-01       3.70982e-09       1.17819e-10       1.05887e-15       9.88186e-12       4.95833e-01       4.13652e-02       4.95833e-01      
 2.25000e-01       4.90034e-09       1.56341e-10       1.07625e-15       1.31064e-11       4.95833e-01       4.13924e-02       4.95833e-01      
 2.34000e-01       6.45913e-09       2.07169e-10       1.09682e-15       1.73561e-11       4.95833e-01       4.14281e-02       4.95833e-01      
 2.43000e-01       8.49290e-09       2.74081e-10       1.12086e-15       2.29418e-11       4.95833e-01       4.14751e-02       4.95833e-01      
 2.52000e-01       1.11358e-08       3.61936e-10       1.14867e-15       3.02609e-11       4.95833e-01       4.15367e-02       4.95833e-01      
 2.61000e-01       1.45546e-08       4.76943e-10       1.18051e-15       3.98166e-11       4.95833e-01       4.16171e-02       4.95833e-01      
 2.70000e-01       1.89547e-08       6.26980e-10       1.21658e-15       5.22402e-11       4.95833e-01       4.17215e-02       4.95833e-01      
 2.79000e-01       2.45851e-08       8.21971e-10       1.25705e-15       6.83145e-11       4.95833e-01       4.18566e-02       4.95833e-01      
 2.88000e-01       3.17445e-08       1.07430e-09       1.30202e-15       8.89975e-11       4.95833e-01       4.20303e-02       4.95833e-01      
 2.97000e-01       4.07848e-08       1.39927e-09       1.35153e-15       1.15443e-10       4.95833e-01       4.22521e-02       4.95833e-01      
 3.06000e-01       5.21139e-08       1.81562e-09       1.40552e-15       1.49018e-10       4.95833e-01       4.25334e-02       4.95833e-01      
 3.15000e-01       6.61955e-08       2.34601e-09       1.46388e-15       1.91305e-10       4.95833e-01       4.28873e-02       4.95833e-01      
 3.24000e-01       8.35462e-08       3.01749e-09       1.52642e-15       2.44096e-10       4.95833e-01       4.33282e-02       4.95833e-01      
 3.33000e-01       1.04728e-07       3.86201e-09       1.59287e-15       3.09369e-10       4.95833e-01       4.38722e-02       4.95833e-01      
 3.42000e-01       1.30337e-07       4.91672e-09       1.66289e-15       3.89237e-10       4.95833e-01       4.45362e-02       4.95833e-01      
 3.51000e-01       1.60987e-07       6.22425e-09       1.73607e-15       4.85885e-10       4.95833e-01       4.53372e-02       4.95833e-01      
 3.60000e-01       1.97290e-07       7.83274e-09       1.81197e-15       6.01484e-10       4.95833e-01       4.62919e-02       4.95833e-01      
 3.69000e-01       2.39835e-07       9.79576e-09       1.89010e-15       7.38104e-10       4.95833e-01       4.74156e-02       4.95833e-01      
 3.78000e-01       2.89167e-07       1.21720e-08       1.96994e-15       8.97625e-10       4.95833e-01       4.87215e-02       4.95833e-01      
 3.87000e-01       3.45774e-07       1.50248e-08       2.05094e-15       1.08166e-09       4.95833e-01       5.02204e-02       4.95833e-01      
 3.96000e-01       4.10080e-07       1.84217e-08       2.13256e-15       1.29152e-09       4.95833e-01       5.19200e-02       4.95833e-01      
 4.05000e-01       4.82454e-07       2.24336e-08       2.21429e-15       1.52816e-09       4.95833e-01       5.38249e-02       4.95833e-01      
 4.14000e-01       5.63225e-07       2.71346e-08       2.29559e-15       1.79227e-09       4.95833e-01       5.59371e-02       4.95833e-01      
 4.23000e-01       6.52709e-07       3.26019e-08       2.37600e-15       2.08424e-09       4.95833e-01       5.82562e-02       4.95833e-01      
 4.32000e-01       7.51237e-07       3.89152e-08       2.45508e-15       2.40426e-09       4.95833e-01       6.07802e-02       4.95833e-01      
 4.41000e-01       8.59175e-07       4.61576e-08       2.53242e-15       2.75239e-09       4.95833e-01       6.35057e-02       4.95833e-01      
 4.50000e-01       9.76935e-07       5.44156e-08       2.60769e-15       3.12863e-09       4.95833e-01       6.64292e-02       4.95833e-01      
 4.59000e-01       1.10498e-06       6.37797e-08       2.68059e-15       3.53294e-09       4.95833e-01       6.95466e-02       4.95833e-01      
 4.68000e-01       1.24379e-06       7.43446e-08       2.75089e-15       3.96530e-09       4.95833e-01       7.28543e-02       4.95833e-01      
 4.77000e-01       1.39387e-06       8.62095e-08       2.81840e-15       4.42573e-09       4.95833e-01       7.63489e-02       4.95833e-01      
 4.86000e-01       1.55571e-06       9.94781e-08       2.88298e-15       4.91428e-09       4.95833e-01       8.00272e-02       4.95833e-01      
 4.95000e-01       1.72974e-06       1.14258e-07       2.94456e-15       5.43106e-09       4.95833e-01       8.38863e-02       4.95833e-01      
 5.04000e-01       1.91632e-06       1.30661e-07       3.00307e-15       5.97615e-09       4.95833e-01       8.79235e-02       4.95833e-01      
 5.13000e-01       2.11572e-06       1.48801e-07       3.05852e-15       6.54968e-09       4.95833e-01       9.21360e-02       4.95833e-01      
 5.22000e-01       2.32806e-06       1.68794e-07       3.11092e-15       7.15174e-09       4.95833e-01       9.65209e-02       4.95833e-01      
 5.31000e-01       2.55339e-06       1.90757e-07       3.16033e-15       7.78237e-09       4.95833e-01       1.01075e-01       4.95833e-01      
 5.40000e-01       2.79157e-06       2.14806e-07       3.20683e-15       8.44159e-09       4.95833e-01       1.05795e-01       4.95833e-01      
 5.49000e-01       3.04238e-06       2.41056e-07       3.25051e-15       9.12934e-09       4.95833e-01       1.10676e-01       4.95833e-01      
 5.58000e-01       3.30543e-06       2.69619e-07       3.29148e-15       9.84552e-09       4.95833e-01       1.15715e-01       4.95833e-01      
 5.67000e-01       3.58026e-06       3.00603e-07       3.32985e-15       1.05900e-08       4.95833e-01       1.20905e-01       4.95833e-01      
 5.76000e-01       3.86630e-06       3.34112e-07       3.36575e-15       1.13624e-08       4.95833e-01       1.26243e-01       4.95833e-01      
 5.85000e-01       4.16288e-06       3.70243e-07       3.39932e-15       1.21625e-08       4.95833e-01       1.31723e-01       4.95833e-01      
 5.94000e-01       4.46928e-06       4.09089e-07       3.43067e-15       1.29899e-08       4.95833e-01       1.37337e-01       4.95833e-01      
 6.03000e-01       4.78476e-06       4.50733e-07       3.45995e-15       1.38443e-08       4.95833e-01       1.43082e-01       4.95833e-01      
 6.12000e-01       5.10852e-06       4.95255e-07       3.48728e-15       1.47251e-08       4.95833e-01       1.48949e-01       4.95833e-01      
 6.21000e-01       5.43975e-06       5.42725e-07       3.51279e-15       1.56319e-08       4.95833e-01       1.54933e-01       4.95833e-01      
 6.30000e-01       5.77766e-06       5.93206e-07       3.53660e-15       1.65642e-08       4.95833e-01       1.61026e-01       4.95833e-01      
 6.39000e-01       6.12146e-06       6.46756e-07       3.55883e-15       1.75214e-08       4.95833e-01       1.67224e-01       4.95833e-01      
 6.48000e-01       6.47040e-06       7.03423e-07       3.57959e-15       1.85030e-08       4.95833e-01       1.73520e-01       4.95833e-01      
 6.57000e-01       6.82375e-06       7.63252e-07       3.59898e-15       1.95085e-08       4.95833e-01       1.79906e-01       4.95833e-01      
 6.66000e-01       7.18082e-06       8.26277e-07       3.61710e-15       2.05374e-08       4.95833e-01       1.86379e-01       4.95833e-01      
 6.75000e-01       7.54099e-06       8.92530e-07       3.63405e-15       2.15891e-08       4.95833e-01       1.92931e-01       4.95833e-01      
 6.84000e-01       7.90364e-06       9.62036e-07       3.64992e-15       2.26631e-08       4.95833e-01       1.99558e-01       4.95833e-01      
 6.93000e-01       8.26823e-06       1.03481e-06       3.66478e-15       2.37590e-08       4.95833e-01       2.06254e-01       4.95833e-01      
 7.02000e-01       8.63426e-06       1.11088e-06       3.67872e-15       2.48763e-08       4.95833e-01       2.13014e-01       4.95833e-01      
 7.11000e-01       9.00129e-06       1.19025e-06       3.69180e-15       2.60146e-08       4.95833e-01       2.19835e-01       4.95833e-01      
 7.20000e-01       9.36889e-06       1.27292e-06       3.70409e-15       2.71734e-08       4.95833e-01       2.26711e-01       4.95833e-01      
 7.29000e-01       9.73670e-06       1.35890e-06       3.71565e-15       2.83524e-08       4.95833e-01       2.33638e-01       4.95833e-01      
 7.38000e-01       1.01044e-05       1.44819e-06       3.72654e-15       2.95513e-08       4.95833e-01       2.40614e-01       4.95833e-01      
 7.47000e-01       1.04717e-05       1.54079e-06       3.73680e-15       3.07697e-08       4.95833e-01       2.47634e-01       4.95833e-01      
 7.56000e-01       1.08383e-05       1.63668e-06       3.74649e-15       3.20074e-08       4.95833e-01       2.54695e-01       4.95833e-01      
 7.65000e-01       1.12041e-05       1.73588e-06       3.75565e-15       3.32640e-08       4.95833e-01       2.61794e-01       4.95833e-01      
 7.74000e-01       1.15687e-05       1.83836e-06       3.76432e-15       3.45394e-08       4.95833e-01       2.68929e-01       4.95833e-01      
 7.83000e-01       1.19321e-05       1.94412e-06       3.77254e-15       3.58333e-08       4.95833e-01       2.76098e-01       4.95833e-01      
 7.92000e-01       1.22941e-05       2.05314e-06       3.78034e-15       3.71456e-08       4.95833e-01       2.83297e-01       4.95833e-01      
 8.01000e-01       1.26545e-05       2.16541e-06       3.78775e-15       3.84760e-08       4.95833e-01       2.90525e-01       4.95833e-01      
 8.10000e-01       1.30132e-05       2.28092e-06       3.79480e-15       3.98246e-08       4.95833e-01       2.97780e-01       4.95833e-01      
 8.19000e-01       1.33702e-05       2.39965e-06       3.80152e-15       4.11911e-08       4.95833e-01       3.05060e-01       4.95833e-01      
 8.28000e-01       1.37253e-05       2.52158e-06       3.80793e-15       4.25755e-08       4.95833e-01       3.12363e-01       4.95833e-01      
 8.37000e-01       1.40785e-05       2.64670e-06       3.81405e-15       4.39777e-08       4.95833e-01       3.19689e-01       4.95833e-01      
 8.46000e-01       1.44297e-05       2.77498e-06       3.81991e-15       4.53977e-08       4.95833e-01       3.27036e-01       4.95833e-01      
 8.55000e-01       1.47787e-05       2.90642e-06       3.82552e-15       4.68355e-08       4.95833e-01       3.34402e-01       4.95833e-01      
 8.64000e-01       1.51257e-05       3.04099e-06       3.83090e-15       4.82911e-08       4.95833e-01       3.41788e-01       4.95833e-01      
 8.73000e-01       1.54705e-05       3.17868e-06       3.83606e-15       4.97644e-08       4.95833e-01       3.49191e-01       4.95833e-01      
 8.82000e-01       1.58130e-05       3.31945e-06       3.84103e-15       5.12555e-08       4.95833e-01       3.56611e-01       4.95833e-01      
 8.91000e-01       1.61533e-05       3.46330e-06       3.84580e-15       5.27645e-08       4.95833e-01       3.64047e-01       4.95833e-01      
 9.00000e-01       1.64912e-05       3.61020e-06       3.85041e-15       5.42914e-08       4.95833e-01       3.71499e-01       4.95833e-01      
 9.09000e-01       1.68268e-05       3.76013e-06       3.85485e-15       5.58364e-08       4.95833e-01       3.78965e-01       4.95833e-01      
 9.18000e-01       1.71601e-05       3.91307e-06       3.85913e-15       5.73994e-08       4.95833e-01       3.86446e-01       4.95833e-01      
 9.27000e-01       1.74909e-05       4.06899e-06       3.86328e-15       5.89807e-08       4.95833e-01       3.93941e-01       4.95833e-01      
 9.36000e-01       1.78193e-05       4.22789e-06       3.86728e-15       6.05803e-08       4.95833e-01       4.01450e-01       4.95833e-01      
 9.45000e-01       1.81452e-05       4.38973e-06       3.87116e-15       6.21984e-08       4.95833e-01       4.08971e-01       4.95833e-01      
 9.54000e-01       1.84686e-05       4.55449e-06       3.87493e-15       6.38352e-08       4.95833e-01       4.16505e-01       4.95833e-01      
 9.63000e-01       1.87895e-05       4.72215e-06       3.87858e-15       6.54907e-08       4.95833e-01       4.24052e-01       4.95833e-01      
 9.72000e-01       1.91078e-05       4.89268e-06       3.88212e-15       6.71653e-08       4.95833e-01       4.31611e-01       4.95833e-01      
 9.81000e-01       1.94236e-05       5.06607e-06       3.88556e-15       6.88590e-08       4.95833e-01       4.39182e-01       4.95833e-01      
 9.90000e-01       1.97367e-05       5.24229e-06       3.88891e-15       7.05722e-08       4.95833e-01       4.46765e-01       4.95833e-01      
 9.99000e-01       2.00472e-05       5.42131e-06       3.89217e-15       7.23049e-08       4.95833e-01       4.54359e-01       4.95833e-01      
 1.00800e+00       2.03550e-05       5.60312e-06       3.89534e-15       7.40575e-08       4.95833e-01       4.61965e-01       4.95833e-01      
 1.01700e+00       2.06601e-05       5.78768e-06       3.89844e-15       7.58302e-08       4.95833e-01       4.69583e-01       4.95833e-01      
 1.02600e+00       2.09625e-05       5.97498e-06       3.90145e-15       7.76233e-08       4.95833e-01       4.77212e-01       4.95833e-01      
 1.03500e+00       2.12621e-05       6.16499e-06       3.90440e-15       7.94369e-08       4.95833e-01       4.84852e-01       4.95833e-01      
 1.04400e+00       2.15590e-05       6.35768e-06       3.90727e-15       8.12715e-08       4.95833e-01       4.92503e-01       4.95833e-01      
 1.05300e+00       2.18530e-05       6.55303e-06       3.91008e-15       8.31273e-08       4.95833e-01       5.00166e-01       4.95833e-01      
 1.06200e+00       2.21443e-05       6.75102e-06       3.91283e-15       8.50045e-08       4.95833e-01       5.07840e-01       4.95833e-01      
 1.07100e+00       2.24326e-05       6.95161e-06       3.91551e-15       8.69036e-08       4.95833e-01       5.15525e-01       4.95833e-01      
 1.08000e+00       2.27181e-05       7.15478e-06       3.91814e-15       8.88249e-08       4.95833e-01       5.23222e-01       4.95833e-01      
 1.08900e+00       2.30007e-05       7.36052e-06       3.92071e-15       9.07687e-08       4.95833e-01       5.30929e-01       4.95833e-01      
 1.09800e+00       2.32804e-05       7.56878e-06       3.92323e-15       9.27354e-08       4.95833e-01       5.38648e-01       4.95833e-01      
 1.10700e+00       2.35571e-05       7.77954e-06       3.92570e-15       9.47253e-08       4.95833e-01       5.46378e-01       4.95833e-01      
 1.11600e+00       2.38308e-05       7.99278e-06       3.92812e-15       9.67390e-08       4.95833e-01       5.54120e-01       4.95833e-01      
 1.12500e+00       2.41016e-05       8.20848e-06       3.93049e-15       9.87767e-08       4.95833e-01       5.61873e-01       4.95833e-01      
 1.13400e+00       2.43693e-05       8.42659e-06       3.93282e-15       1.00839e-07       4.95833e-01       5.69638e-01       4.95833e-01      
 1.14300e+00       2.46340e-05       8.64711e-06       3.93511e-15       1.02926e-07       4.95833e-01       5.77414e-01       4.95833e-01      
 1.15200e+00       2.48956e-05       8.86999e-06       3.93736e-15       1.05039e-07       4.95833e-01       5.85202e-01       4.95833e-01      
 1.16100e+00       2.51541e-05       9.09521e-06       3.93956e-15       1.07177e-07       4.95833e-01       5.93002e-01       4.95833e-01      
 1.17000e+00       2.54096e-05       9.32274e-06       3.94173e-15       1.09342e-07       4.95833e-01       6.00813e-01       4.95833e-01      
 1.17900e+00       2.56619e-05       9.55256e-06       3.94386e-15       1.11534e-07       4.95833e-01       6.08637e-01       4.95833e-01      
 1.18800e+00       2.59111e-05       9.78464e-06       3.94596e-15       1.13753e-07       4.95833e-01       6.16472e-01       4.95833e-01      
 1.19700e+00       2.61571e-05       1.00189e-05       3.94802e-15       1.16000e-07       4.95833e-01       6.24320e-01       4.95833e-01      
 1.20600e+00       2.64000e-05       1.02554e-05       3.95005e-15       1.18276e-07       4.95833e-01       6.32180e-01       4.95833e-01      
 1.21500e+00       2.66397e-05       1.04941e-05       3.95204e-15       1.20580e-07       4.95833e-01       6.40052e-01       4.95833e-01      
