
dc (V)            getData("M0:gm    getData("M0:id    getData("M0:cg    getData("M0:gd    getData("M0:vt    getData("M0:vd    getData("M0:vt

 0.00000e+00       9.38974e-13       4.77153e-14       3.76351e-15       7.49145e-16       4.86229e-01       3.93580e-02       4.86229e-01      
 9.00000e-03       1.25916e-12       5.66507e-14       3.74810e-15       1.00472e-15       4.86229e-01       3.93580e-02       4.86229e-01      
 1.80000e-02       1.68843e-12       6.90321e-14       3.73335e-15       1.34745e-15       4.86229e-01       3.93581e-02       4.86229e-01      
 2.70000e-02       2.26389e-12       8.59918e-14       3.71929e-15       1.80699e-15       4.86229e-01       3.93581e-02       4.86229e-01      
 3.60000e-02       3.03524e-12       1.09050e-13       3.70599e-15       2.42313e-15       4.86229e-01       3.93582e-02       4.86229e-01      
 4.50000e-02       4.06902e-12       1.40249e-13       3.69349e-15       3.24916e-15       4.86229e-01       3.93583e-02       4.86229e-01      
 5.40000e-02       5.45431e-12       1.82326e-13       3.68188e-15       4.35647e-15       4.86229e-01       3.93585e-02       4.86229e-01      
 6.30000e-02       7.31028e-12       2.38949e-13       3.67126e-15       5.84064e-15       4.86229e-01       3.93586e-02       4.86229e-01      
 7.20000e-02       9.79635e-12       3.15033e-13       3.66176e-15       7.82968e-15       4.86229e-01       3.93589e-02       4.86229e-01      
 8.10000e-02       1.31256e-11       4.17160e-13       3.65352e-15       1.04949e-14       4.86229e-01       3.93592e-02       4.86229e-01      
 9.00000e-02       1.75827e-11       5.54136e-13       3.64674e-15       1.40654e-14       4.86229e-01       3.93597e-02       4.86229e-01      
 9.90000e-02       2.35477e-11       7.37740e-13       3.64165e-15       1.88477e-14       4.86229e-01       3.93603e-02       4.86229e-01      
 1.08000e-01       3.15275e-11       9.83718e-13       3.63852e-15       2.52514e-14       4.86229e-01       3.93611e-02       4.86229e-01      
 1.17000e-01       4.21978e-11       1.31310e-12       3.63770e-15       3.38233e-14       4.86229e-01       3.93622e-02       4.86229e-01      
 1.26000e-01       5.64559e-11       1.75397e-12       3.63947e-15       4.52935e-14       4.86229e-01       3.93636e-02       4.86229e-01      
 1.35000e-01       7.54939e-11       2.34372e-12       3.64431e-15       6.06343e-14       4.86229e-01       3.93655e-02       4.86229e-01      
 1.44000e-01       1.00897e-10       3.13220e-12       3.65288e-15       8.11408e-14       4.86229e-01       3.93681e-02       4.86229e-01      
 1.53000e-01       1.34761e-10       4.18570e-12       3.66585e-15       1.08535e-13       4.86229e-01       3.93715e-02       4.86229e-01      
 1.62000e-01       1.79857e-10       5.59232e-12       3.68395e-15       1.45105e-13       4.86229e-01       3.93761e-02       4.86229e-01      
 1.71000e-01       2.39836e-10       7.46886e-12       3.70806e-15       1.93880e-13       4.86229e-01       3.93822e-02       4.86229e-01      
 1.80000e-01       3.19493e-10       9.96992e-12       3.73913e-15       2.58869e-13       4.86229e-01       3.93904e-02       4.86229e-01      
 1.89000e-01       4.25103e-10       1.32997e-11       3.77824e-15       3.45359e-13       4.86229e-01       3.94012e-02       4.86229e-01      
 1.98000e-01       5.64848e-10       1.77270e-11       3.82655e-15       4.60302e-13       4.86229e-01       3.94157e-02       4.86229e-01      
 2.07000e-01       7.49337e-10       2.36050e-11       3.88530e-15       6.12807e-13       4.86229e-01       3.94348e-02       4.86229e-01      
 2.16000e-01       9.92254e-10       3.13956e-11       3.95578e-15       8.14760e-13       4.86229e-01       3.94601e-02       4.86229e-01      
 2.25000e-01       1.31113e-09       4.17004e-11       4.03929e-15       1.08159e-12       4.86229e-01       3.94936e-02       4.86229e-01      
 2.34000e-01       1.72827e-09       5.53000e-11       4.13711e-15       1.43321e-12       4.86229e-01       3.95376e-02       4.86229e-01      
 2.43000e-01       2.27179e-09       7.32007e-11       4.25043e-15       1.89513e-12       4.86229e-01       3.95955e-02       4.86229e-01      
 2.52000e-01       2.97680e-09       9.66929e-11       4.38035e-15       2.49979e-12       4.86229e-01       3.96712e-02       4.86229e-01      
 2.61000e-01       3.88669e-09       1.27419e-10       4.52776e-15       3.28803e-12       4.86229e-01       3.97697e-02       4.86229e-01      
 2.70000e-01       5.05442e-09       1.67455e-10       4.69335e-15       4.31070e-12       4.86229e-01       3.98975e-02       4.86229e-01      
 2.79000e-01       6.54378e-09       2.19400e-10       4.87756e-15       5.63032e-12       4.86229e-01       4.00620e-02       4.86229e-01      
 2.88000e-01       8.43049e-09       2.86483e-10       5.08053e-15       7.32260e-12       4.86229e-01       4.02727e-02       4.86229e-01      
 2.97000e-01       1.08030e-08       3.72668e-10       5.30207e-15       9.47768e-12       4.86229e-01       4.05403e-02       4.86229e-01      
 3.06000e-01       1.37628e-08       4.82778e-10       5.54171e-15       1.22008e-11       4.86229e-01       4.08774e-02       4.86229e-01      
 3.15000e-01       1.74244e-08       6.22605e-10       5.79861e-15       1.56123e-11       4.86229e-01       4.12982e-02       4.86229e-01      
 3.24000e-01       2.19136e-08       7.99027e-10       6.07167e-15       1.98460e-11       4.86229e-01       4.18180e-02       4.86229e-01      
 3.33000e-01       2.73663e-08       1.02010e-09       6.35946e-15       2.50471e-11       4.86229e-01       4.24531e-02       4.86229e-01      
 3.42000e-01       3.39245e-08       1.29514e-09       6.66031e-15       3.13683e-11       4.86229e-01       4.32200e-02       4.86229e-01      
 3.51000e-01       4.17328e-08       1.63474e-09       6.97232e-15       3.89645e-11       4.86229e-01       4.41346e-02       4.86229e-01      
 3.60000e-01       5.09333e-08       2.05080e-09       7.29345e-15       4.79876e-11       4.86229e-01       4.52117e-02       4.86229e-01      
 3.69000e-01       6.16610e-08       2.55648e-09       7.62150e-15       5.85803e-11       4.86229e-01       4.64641e-02       4.86229e-01      
 3.78000e-01       7.40402e-08       3.16609e-09       7.95423e-15       7.08717e-11       4.86229e-01       4.79018e-02       4.86229e-01      
 3.87000e-01       8.81828e-08       3.89501e-09       8.28939e-15       8.49733e-11       4.86229e-01       4.95322e-02       4.86229e-01      
 3.96000e-01       1.04189e-07       4.75957e-09       8.62476e-15       1.00977e-10       4.86229e-01       5.13597e-02       4.86229e-01      
 4.05000e-01       1.22152e-07       5.77698e-09       8.95821e-15       1.18957e-10       4.86229e-01       5.33864e-02       4.86229e-01      
 4.14000e-01       1.42162e-07       6.96526e-09       9.28777e-15       1.38968e-10       4.86229e-01       5.56118e-02       4.86229e-01      
 4.23000e-01       1.64311e-07       8.34323e-09       9.61161e-15       1.61055e-10       4.86229e-01       5.80342e-02       4.86229e-01      
 4.32000e-01       1.88702e-07       9.93062e-09       9.92811e-15       1.85249e-10       4.86229e-01       6.06508e-02       4.86229e-01      
 4.41000e-01       2.15447e-07       1.17481e-08       1.02358e-14       2.11579e-10       4.86229e-01       6.34583e-02       4.86229e-01      
 4.50000e-01       2.44668e-07       1.38174e-08       1.05337e-14       2.40068e-10       4.86229e-01       6.64536e-02       4.86229e-01      
 4.59000e-01       2.76494e-07       1.61614e-08       1.08206e-14       2.70741e-10       4.86229e-01       6.96334e-02       4.86229e-01      
 4.68000e-01       3.11056e-07       1.88041e-08       1.10958e-14       3.03621e-10       4.86229e-01       7.29949e-02       4.86229e-01      
 4.77000e-01       3.48482e-07       2.17707e-08       1.13589e-14       3.38735e-10       4.86229e-01       7.65358e-02       4.86229e-01      
 4.86000e-01       3.88885e-07       2.50876e-08       1.16095e-14       3.76108e-10       4.86229e-01       8.02536e-02       4.86229e-01      
 4.95000e-01       4.32363e-07       2.87819e-08       1.18474e-14       4.15765e-10       4.86229e-01       8.41462e-02       4.86229e-01      
 5.04000e-01       4.78990e-07       3.28817e-08       1.20726e-14       4.57729e-10       4.86229e-01       8.82113e-02       4.86229e-01      
 5.13000e-01       5.28810e-07       3.74156e-08       1.22853e-14       5.02020e-10       4.86229e-01       9.24465e-02       4.86229e-01      
 5.22000e-01       5.81840e-07       4.24125e-08       1.24856e-14       5.48654e-10       4.86229e-01       9.68490e-02       4.86229e-01      
 5.31000e-01       6.38063e-07       4.79010e-08       1.26740e-14       5.97640e-10       4.86229e-01       1.01416e-01       4.86229e-01      
 5.40000e-01       6.97433e-07       5.39098e-08       1.28507e-14       6.48986e-10       4.86229e-01       1.06143e-01       4.86229e-01      
 5.49000e-01       7.59872e-07       6.04669e-08       1.30164e-14       7.02687e-10       4.86229e-01       1.11027e-01       4.86229e-01      
 5.58000e-01       8.25277e-07       6.75994e-08       1.31714e-14       7.58739e-10       4.86229e-01       1.16063e-01       4.86229e-01      
 5.67000e-01       8.93522e-07       7.53336e-08       1.33164e-14       8.17126e-10       4.86229e-01       1.21247e-01       4.86229e-01      
 5.76000e-01       9.64457e-07       8.36942e-08       1.34518e-14       8.77829e-10       4.86229e-01       1.26572e-01       4.86229e-01      
 5.85000e-01       1.03792e-06       9.27047e-08       1.35782e-14       9.40825e-10       4.86229e-01       1.32034e-01       4.86229e-01      
 5.94000e-01       1.11374e-06       1.02387e-07       1.36961e-14       1.00608e-09       4.86229e-01       1.37626e-01       4.86229e-01      
 6.03000e-01       1.19174e-06       1.12762e-07       1.38061e-14       1.07358e-09       4.86229e-01       1.43343e-01       4.86229e-01      
 6.12000e-01       1.27172e-06       1.23848e-07       1.39088e-14       1.14326e-09       4.86229e-01       1.49179e-01       4.86229e-01      
 6.21000e-01       1.35350e-06       1.35662e-07       1.40045e-14       1.21511e-09       4.86229e-01       1.55127e-01       4.86229e-01      
 6.30000e-01       1.43691e-06       1.48219e-07       1.40938e-14       1.28908e-09       4.86229e-01       1.61182e-01       4.86229e-01      
 6.39000e-01       1.52177e-06       1.61534e-07       1.41772e-14       1.36513e-09       4.86229e-01       1.67338e-01       4.86229e-01      
 6.48000e-01       1.60790e-06       1.75618e-07       1.42550e-14       1.44322e-09       4.86229e-01       1.73589e-01       4.86229e-01      
 6.57000e-01       1.69514e-06       1.90483e-07       1.43277e-14       1.52331e-09       4.86229e-01       1.79928e-01       4.86229e-01      
 6.66000e-01       1.78335e-06       2.06137e-07       1.43957e-14       1.60537e-09       4.86229e-01       1.86352e-01       4.86229e-01      
 6.75000e-01       1.87239e-06       2.22589e-07       1.44594e-14       1.68935e-09       4.86229e-01       1.92855e-01       4.86229e-01      
 6.84000e-01       1.96212e-06       2.39845e-07       1.45189e-14       1.77523e-09       4.86229e-01       1.99432e-01       4.86229e-01      
 6.93000e-01       2.05243e-06       2.57912e-07       1.45748e-14       1.86296e-09       4.86229e-01       2.06078e-01       4.86229e-01      
 7.02000e-01       2.14321e-06       2.76793e-07       1.46272e-14       1.95252e-09       4.86229e-01       2.12789e-01       4.86229e-01      
 7.11000e-01       2.23436e-06       2.96493e-07       1.46764e-14       2.04388e-09       4.86229e-01       2.19561e-01       4.86229e-01      
 7.20000e-01       2.32579e-06       3.17015e-07       1.47227e-14       2.13701e-09       4.86229e-01       2.26390e-01       4.86229e-01      
 7.29000e-01       2.41743e-06       3.38361e-07       1.47663e-14       2.23188e-09       4.86229e-01       2.33273e-01       4.86229e-01      
 7.38000e-01       2.50921e-06       3.60532e-07       1.48074e-14       2.32848e-09       4.86229e-01       2.40207e-01       4.86229e-01      
 7.47000e-01       2.60106e-06       3.83529e-07       1.48462e-14       2.42677e-09       4.86229e-01       2.47188e-01       4.86229e-01      
 7.56000e-01       2.69292e-06       4.07352e-07       1.48828e-14       2.52676e-09       4.86229e-01       2.54214e-01       4.86229e-01      
 7.65000e-01       2.78475e-06       4.32003e-07       1.49175e-14       2.62841e-09       4.86229e-01       2.61282e-01       4.86229e-01      
 7.74000e-01       2.87651e-06       4.57479e-07       1.49504e-14       2.73173e-09       4.86229e-01       2.68389e-01       4.86229e-01      
 7.83000e-01       2.96816e-06       4.83781e-07       1.49816e-14       2.83668e-09       4.86229e-01       2.75535e-01       4.86229e-01      
 7.92000e-01       3.05965e-06       5.10907e-07       1.50112e-14       2.94328e-09       4.86229e-01       2.82716e-01       4.86229e-01      
 8.01000e-01       3.15097e-06       5.38855e-07       1.50394e-14       3.05151e-09       4.86229e-01       2.89931e-01       4.86229e-01      
 8.10000e-01       3.24208e-06       5.67624e-07       1.50663e-14       3.16136e-09       4.86229e-01       2.97178e-01       4.86229e-01      
 8.19000e-01       3.33296e-06       5.97212e-07       1.50919e-14       3.27284e-09       4.86229e-01       3.04456e-01       4.86229e-01      
 8.28000e-01       3.42358e-06       6.27617e-07       1.51164e-14       3.38594e-09       4.86229e-01       3.11764e-01       4.86229e-01      
 8.37000e-01       3.51394e-06       6.58836e-07       1.51398e-14       3.50066e-09       4.86229e-01       3.19100e-01       4.86229e-01      
 8.46000e-01       3.60401e-06       6.90867e-07       1.51623e-14       3.61701e-09       4.86229e-01       3.26463e-01       4.86229e-01      
 8.55000e-01       3.69377e-06       7.23707e-07       1.51838e-14       3.73500e-09       4.86229e-01       3.33852e-01       4.86229e-01      
 8.64000e-01       3.78321e-06       7.57353e-07       1.52044e-14       3.85462e-09       4.86229e-01       3.41267e-01       4.86229e-01      
 8.73000e-01       3.87231e-06       7.91803e-07       1.52243e-14       3.97588e-09       4.86229e-01       3.48706e-01       4.86229e-01      
 8.82000e-01       3.96107e-06       8.27053e-07       1.52434e-14       4.09880e-09       4.86229e-01       3.56169e-01       4.86229e-01      
 8.91000e-01       4.04947e-06       8.63100e-07       1.52618e-14       4.22338e-09       4.86229e-01       3.63655e-01       4.86229e-01      
 9.00000e-01       4.13749e-06       8.99941e-07       1.52795e-14       4.34964e-09       4.86229e-01       3.71163e-01       4.86229e-01      
 9.09000e-01       4.22513e-06       9.37572e-07       1.52966e-14       4.47759e-09       4.86229e-01       3.78694e-01       4.86229e-01      
 9.18000e-01       4.31237e-06       9.75991e-07       1.53132e-14       4.60724e-09       4.86229e-01       3.86246e-01       4.86229e-01      
 9.27000e-01       4.39920e-06       1.01519e-06       1.53292e-14       4.73861e-09       4.86229e-01       3.93820e-01       4.86229e-01      
 9.36000e-01       4.48562e-06       1.05517e-06       1.53447e-14       4.87172e-09       4.86229e-01       4.01414e-01       4.86229e-01      
 9.45000e-01       4.57161e-06       1.09593e-06       1.53597e-14       5.00659e-09       4.86229e-01       4.09029e-01       4.86229e-01      
 9.54000e-01       4.65716e-06       1.13746e-06       1.53743e-14       5.14323e-09       4.86229e-01       4.16664e-01       4.86229e-01      
 9.63000e-01       4.74226e-06       1.17976e-06       1.53884e-14       5.28167e-09       4.86229e-01       4.24319e-01       4.86229e-01      
 9.72000e-01       4.82690e-06       1.22282e-06       1.54021e-14       5.42193e-09       4.86229e-01       4.31993e-01       4.86229e-01      
 9.81000e-01       4.91107e-06       1.26664e-06       1.54155e-14       5.56404e-09       4.86229e-01       4.39688e-01       4.86229e-01      
 9.90000e-01       4.99475e-06       1.31121e-06       1.54284e-14       5.70801e-09       4.86229e-01       4.47401e-01       4.86229e-01      
 9.99000e-01       5.07795e-06       1.35654e-06       1.54411e-14       5.85387e-09       4.86229e-01       4.55134e-01       4.86229e-01      
 1.00800e+00       5.16064e-06       1.40261e-06       1.54534e-14       6.00166e-09       4.86229e-01       4.62886e-01       4.86229e-01      
 1.01700e+00       5.24281e-06       1.44943e-06       1.54654e-14       6.15140e-09       4.86229e-01       4.70657e-01       4.86229e-01      
 1.02600e+00       5.32447e-06       1.49698e-06       1.54771e-14       6.30313e-09       4.86229e-01       4.78447e-01       4.86229e-01      
 1.03500e+00       5.40559e-06       1.54526e-06       1.54885e-14       6.45686e-09       4.86229e-01       4.86256e-01       4.86229e-01      
 1.04400e+00       5.48616e-06       1.59427e-06       1.54997e-14       6.61265e-09       4.86229e-01       4.94084e-01       4.86229e-01      
 1.05300e+00       5.56618e-06       1.64401e-06       1.55106e-14       6.77051e-09       4.86229e-01       5.01931e-01       4.86229e-01      
 1.06200e+00       5.64564e-06       1.69446e-06       1.55212e-14       6.93050e-09       4.86229e-01       5.09796e-01       4.86229e-01      
 1.07100e+00       5.72452e-06       1.74563e-06       1.55317e-14       7.09263e-09       4.86229e-01       5.17681e-01       4.86229e-01      
 1.08000e+00       5.80281e-06       1.79750e-06       1.55419e-14       7.25697e-09       4.86229e-01       5.25584e-01       4.86229e-01      
 1.08900e+00       5.88051e-06       1.85007e-06       1.55518e-14       7.42354e-09       4.86229e-01       5.33506e-01       4.86229e-01      
 1.09800e+00       5.95760e-06       1.90334e-06       1.55616e-14       7.59239e-09       4.86229e-01       5.41446e-01       4.86229e-01      
 1.10700e+00       6.03408e-06       1.95730e-06       1.55712e-14       7.76356e-09       4.86229e-01       5.49406e-01       4.86229e-01      
 1.11600e+00       6.10993e-06       2.01195e-06       1.55806e-14       7.93710e-09       4.86229e-01       5.57384e-01       4.86229e-01      
 1.12500e+00       6.18515e-06       2.06728e-06       1.55897e-14       8.11306e-09       4.86229e-01       5.65382e-01       4.86229e-01      
 1.13400e+00       6.25972e-06       2.12328e-06       1.55988e-14       8.29148e-09       4.86229e-01       5.73398e-01       4.86229e-01      
 1.14300e+00       6.33364e-06       2.17995e-06       1.56076e-14       8.47243e-09       4.86229e-01       5.81434e-01       4.86229e-01      
 1.15200e+00       6.40690e-06       2.23728e-06       1.56163e-14       8.65595e-09       4.86229e-01       5.89488e-01       4.86229e-01      
 1.16100e+00       6.47949e-06       2.29527e-06       1.56248e-14       8.84210e-09       4.86229e-01       5.97561e-01       4.86229e-01      
 1.17000e+00       6.55140e-06       2.35391e-06       1.56332e-14       9.03094e-09       4.86229e-01       6.05654e-01       4.86229e-01      
 1.17900e+00       6.62262e-06       2.41319e-06       1.56414e-14       9.22253e-09       4.86229e-01       6.13766e-01       4.86229e-01      
 1.18800e+00       6.69314e-06       2.47311e-06       1.56495e-14       9.41693e-09       4.86229e-01       6.21897e-01       4.86229e-01      
 1.19700e+00       6.76296e-06       2.53366e-06       1.56574e-14       9.61421e-09       4.86229e-01       6.30048e-01       4.86229e-01      
 1.20600e+00       6.83207e-06       2.59484e-06       1.56652e-14       9.81445e-09       4.86229e-01       6.38218e-01       4.86229e-01      
 1.21500e+00       6.90047e-06       2.65664e-06       1.56729e-14       1.00177e-08       4.86229e-01       6.46407e-01       4.86229e-01      
