
dc (V)            getData("M0:gm    getData("M0:id    getData("M0:cg    getData("M0:gd    getData("M0:vt    getData("M0:vd    getData("M0:vt

 0.00000e+00       8.78530e-13       4.58566e-14       4.02140e-15       6.61046e-16       4.85964e-01       3.93133e-02       4.85964e-01      
 9.00000e-03       1.17817e-12       5.41597e-14       4.00490e-15       8.86617e-16       4.85964e-01       3.93134e-02       4.85964e-01      
 1.80000e-02       1.57991e-12       6.56940e-14       3.98910e-15       1.18911e-15       4.85964e-01       3.93134e-02       4.85964e-01      
 2.70000e-02       2.11849e-12       8.15186e-14       3.97405e-15       1.59474e-15       4.85964e-01       3.93135e-02       4.85964e-01      
 3.60000e-02       2.84044e-12       1.03057e-13       3.95981e-15       2.13862e-15       4.85964e-01       3.93136e-02       4.85964e-01      
 4.50000e-02       3.80806e-12       1.32218e-13       3.94643e-15       2.86781e-15       4.85964e-01       3.93137e-02       4.85964e-01      
 5.40000e-02       5.10476e-12       1.71565e-13       3.93401e-15       3.84534e-15       4.85964e-01       3.93138e-02       4.85964e-01      
 6.30000e-02       6.84213e-12       2.24533e-13       3.92266e-15       5.15564e-15       4.85964e-01       3.93140e-02       4.85964e-01      
 7.20000e-02       9.16944e-12       2.95722e-13       3.91250e-15       6.91175e-15       4.85964e-01       3.93142e-02       4.85964e-01      
 8.10000e-02       1.22862e-11       3.91295e-13       3.90371e-15       9.26496e-15       4.85964e-01       3.93146e-02       4.85964e-01      
 9.00000e-02       1.64591e-11       5.19495e-13       3.89648e-15       1.24177e-14       4.85964e-01       3.93150e-02       4.85964e-01      
 9.90000e-02       2.20439e-11       6.91353e-13       3.89107e-15       1.66405e-14       4.85964e-01       3.93156e-02       4.85964e-01      
 1.08000e-01       2.95155e-11       9.21613e-13       3.88777e-15       2.22953e-14       4.85964e-01       3.93164e-02       4.85964e-01      
 1.17000e-01       3.95065e-11       1.22997e-12       3.88695e-15       2.98652e-14       4.85964e-01       3.93175e-02       4.85964e-01      
 1.26000e-01       5.28575e-11       1.64272e-12       3.88893e-15       3.99950e-14       4.85964e-01       3.93190e-02       4.85964e-01      
 1.35000e-01       7.06849e-11       2.19488e-12       3.89420e-15       5.35435e-14       4.85964e-01       3.93209e-02       4.85964e-01      
 1.44000e-01       9.44731e-11       2.93314e-12       3.90350e-15       7.16550e-14       4.85964e-01       3.93235e-02       4.85964e-01      
 1.53000e-01       1.26186e-10       3.91958e-12       3.91751e-15       9.58510e-14       4.85964e-01       3.93270e-02       4.85964e-01      
 1.62000e-01       1.68418e-10       5.23671e-12       3.93706e-15       1.28152e-13       4.85964e-01       3.93316e-02       4.85964e-01      
 1.71000e-01       2.24589e-10       6.99392e-12       3.96306e-15       1.71235e-13       4.85964e-01       3.93377e-02       4.85964e-01      
 1.80000e-01       2.99188e-10       9.33600e-12       3.99655e-15       2.28641e-13       4.85964e-01       3.93459e-02       4.85964e-01      
 1.89000e-01       3.98095e-10       1.24542e-11       4.03870e-15       3.05041e-13       4.85964e-01       3.93569e-02       4.85964e-01      
 1.98000e-01       5.28969e-10       1.66003e-11       4.09073e-15       4.06576e-13       4.85964e-01       3.93714e-02       4.85964e-01      
 2.07000e-01       7.01744e-10       2.21049e-11       4.15398e-15       5.41293e-13       4.85964e-01       3.93906e-02       4.85964e-01      
 2.16000e-01       9.29234e-10       2.94007e-11       4.22984e-15       7.19690e-13       4.85964e-01       3.94161e-02       4.85964e-01      
 2.25000e-01       1.22785e-09       3.90510e-11       4.31970e-15       9.55394e-13       4.85964e-01       3.94498e-02       4.85964e-01      
 2.34000e-01       1.61847e-09       5.17866e-11       4.42492e-15       1.26599e-12       4.85964e-01       3.94941e-02       4.85964e-01      
 2.43000e-01       2.12740e-09       6.85498e-11       4.54679e-15       1.67401e-12       4.85964e-01       3.95523e-02       4.85964e-01      
 2.52000e-01       2.78750e-09       9.05484e-11       4.68647e-15       2.20810e-12       4.85964e-01       3.96284e-02       4.85964e-01      
 2.61000e-01       3.63935e-09       1.19320e-10       4.84492e-15       2.90430e-12       4.85964e-01       3.97276e-02       4.85964e-01      
 2.70000e-01       4.73250e-09       1.56807e-10       5.02288e-15       3.80751e-12       4.85964e-01       3.98561e-02       4.85964e-01      
 2.79000e-01       6.12657e-09       2.05442e-10       5.22078e-15       4.97288e-12       4.85964e-01       4.00216e-02       4.85964e-01      
 2.88000e-01       7.89235e-09       2.68245e-10       5.43879e-15       6.46722e-12       4.85964e-01       4.02334e-02       4.85964e-01      
 2.97000e-01       1.01125e-08       3.48925e-10       5.67670e-15       8.37003e-12       4.85964e-01       4.05024e-02       4.85964e-01      
 3.06000e-01       1.28819e-08       4.51991e-10       5.93397e-15       1.07741e-11       4.85964e-01       4.08413e-02       4.85964e-01      
 3.15000e-01       1.63073e-08       5.82861e-10       6.20972e-15       1.37856e-11       4.85964e-01       4.12641e-02       4.85964e-01      
 3.24000e-01       2.05063e-08       7.47962e-10       6.50273e-15       1.75223e-11       4.85964e-01       4.17864e-02       4.85964e-01      
 3.33000e-01       2.56057e-08       9.54825e-10       6.81149e-15       2.21125e-11       4.85964e-01       4.24242e-02       4.85964e-01      
 3.42000e-01       3.17381e-08       1.21215e-09       7.13418e-15       2.76904e-11       4.85964e-01       4.31942e-02       4.85964e-01      
 3.51000e-01       3.90381e-08       1.52984e-09       7.46879e-15       3.43927e-11       4.85964e-01       4.41123e-02       4.85964e-01      
 3.60000e-01       4.76383e-08       1.91902e-09       7.81308e-15       4.23532e-11       4.85964e-01       4.51930e-02       4.85964e-01      
 3.69000e-01       5.76644e-08       2.39195e-09       8.16473e-15       5.16981e-11       4.85964e-01       4.64491e-02       4.85964e-01      
 3.78000e-01       6.92322e-08       2.96200e-09       8.52133e-15       6.25411e-11       4.85964e-01       4.78906e-02       4.85964e-01      
 3.87000e-01       8.24460e-08       3.64354e-09       8.88045e-15       7.49810e-11       4.85964e-01       4.95248e-02       4.85964e-01      
 3.96000e-01       9.73995e-08       4.45181e-09       9.23973e-15       8.90995e-11       4.85964e-01       5.13561e-02       4.85964e-01      
 4.05000e-01       1.14179e-07       5.40286e-09       9.59689e-15       1.04962e-10       4.85964e-01       5.33862e-02       4.85964e-01      
 4.14000e-01       1.32869e-07       6.51352e-09       9.94981e-15       1.22619e-10       4.85964e-01       5.56149e-02       4.85964e-01      
 4.23000e-01       1.53558e-07       7.80136e-09       1.02966e-14       1.42110e-10       4.85964e-01       5.80404e-02       4.85964e-01      
 4.32000e-01       1.76340e-07       9.28481e-09       1.06354e-14       1.63464e-10       4.85964e-01       6.06597e-02       4.85964e-01      
 4.41000e-01       2.01320e-07       1.09832e-08       1.09648e-14       1.86707e-10       4.85964e-01       6.34697e-02       4.85964e-01      
 4.50000e-01       2.28614e-07       1.29167e-08       1.12835e-14       2.11862e-10       4.85964e-01       6.64672e-02       4.85964e-01      
 4.59000e-01       2.58342e-07       1.51069e-08       1.15905e-14       2.38951e-10       4.85964e-01       6.96490e-02       4.85964e-01      
 4.68000e-01       2.90627e-07       1.75760e-08       1.18850e-14       2.67997e-10       4.85964e-01       7.30124e-02       4.85964e-01      
 4.77000e-01       3.25586e-07       2.03478e-08       1.21665e-14       2.99023e-10       4.85964e-01       7.65549e-02       4.85964e-01      
 4.86000e-01       3.63328e-07       2.34467e-08       1.24345e-14       3.32053e-10       4.85964e-01       8.02741e-02       4.85964e-01      
 4.95000e-01       4.03941e-07       2.68982e-08       1.26889e-14       3.67109e-10       4.85964e-01       8.41680e-02       4.85964e-01      
 5.04000e-01       4.47495e-07       3.07285e-08       1.29298e-14       4.04212e-10       4.85964e-01       8.82343e-02       4.85964e-01      
 5.13000e-01       4.94030e-07       3.49642e-08       1.31572e-14       4.43381e-10       4.85964e-01       9.24705e-02       4.85964e-01      
 5.22000e-01       5.43562e-07       3.96324e-08       1.33714e-14       4.84630e-10       4.85964e-01       9.68739e-02       4.85964e-01      
 5.31000e-01       5.96074e-07       4.47598e-08       1.35728e-14       5.27969e-10       4.85964e-01       1.01441e-01       4.85964e-01      
 5.40000e-01       6.51522e-07       5.03731e-08       1.37618e-14       5.73402e-10       4.85964e-01       1.06169e-01       4.85964e-01      
 5.49000e-01       7.09834e-07       5.64985e-08       1.39389e-14       6.20929e-10       4.85964e-01       1.11054e-01       4.85964e-01      
 5.58000e-01       7.70913e-07       6.31612e-08       1.41046e-14       6.70541e-10       4.85964e-01       1.16090e-01       4.85964e-01      
 5.67000e-01       8.34640e-07       7.03858e-08       1.42596e-14       7.22229e-10       4.85964e-01       1.21273e-01       4.85964e-01      
 5.76000e-01       9.00877e-07       7.81953e-08       1.44043e-14       7.75974e-10       4.85964e-01       1.26599e-01       4.85964e-01      
 5.85000e-01       9.69473e-07       8.66117e-08       1.45394e-14       8.31756e-10       4.85964e-01       1.32060e-01       4.85964e-01      
 5.94000e-01       1.04026e-06       9.56556e-08       1.46655e-14       8.89549e-10       4.85964e-01       1.37652e-01       4.85964e-01      
 6.03000e-01       1.11308e-06       1.05346e-07       1.47831e-14       9.49324e-10       4.85964e-01       1.43369e-01       4.85964e-01      
 6.12000e-01       1.18776e-06       1.15700e-07       1.48927e-14       1.01105e-09       4.85964e-01       1.49204e-01       4.85964e-01      
 6.21000e-01       1.26411e-06       1.26734e-07       1.49951e-14       1.07470e-09       4.85964e-01       1.55151e-01       4.85964e-01      
 6.30000e-01       1.34198e-06       1.38462e-07       1.50905e-14       1.14023e-09       4.85964e-01       1.61205e-01       4.85964e-01      
 6.39000e-01       1.42120e-06       1.50897e-07       1.51796e-14       1.20760e-09       4.85964e-01       1.67360e-01       4.85964e-01      
 6.48000e-01       1.50160e-06       1.64050e-07       1.52628e-14       1.27680e-09       4.85964e-01       1.73609e-01       4.85964e-01      
 6.57000e-01       1.58305e-06       1.77932e-07       1.53406e-14       1.34777e-09       4.85964e-01       1.79947e-01       4.85964e-01      
 6.66000e-01       1.66540e-06       1.92551e-07       1.54132e-14       1.42048e-09       4.85964e-01       1.86370e-01       4.85964e-01      
 6.75000e-01       1.74852e-06       2.07914e-07       1.54812e-14       1.49491e-09       4.85964e-01       1.92871e-01       4.85964e-01      
 6.84000e-01       1.83229e-06       2.24029e-07       1.55449e-14       1.57102e-09       4.85964e-01       1.99446e-01       4.85964e-01      
 6.93000e-01       1.91661e-06       2.40900e-07       1.56046e-14       1.64879e-09       4.85964e-01       2.06090e-01       4.85964e-01      
 7.02000e-01       2.00136e-06       2.58532e-07       1.56606e-14       1.72817e-09       4.85964e-01       2.12800e-01       4.85964e-01      
 7.11000e-01       2.08646e-06       2.76928e-07       1.57132e-14       1.80915e-09       4.85964e-01       2.19570e-01       4.85964e-01      
 7.20000e-01       2.17183e-06       2.96091e-07       1.57627e-14       1.89171e-09       4.85964e-01       2.26398e-01       4.85964e-01      
 7.29000e-01       2.25739e-06       3.16024e-07       1.58093e-14       1.97582e-09       4.85964e-01       2.33279e-01       4.85964e-01      
 7.38000e-01       2.34309e-06       3.36727e-07       1.58532e-14       2.06146e-09       4.85964e-01       2.40211e-01       4.85964e-01      
 7.47000e-01       2.42885e-06       3.58201e-07       1.58947e-14       2.14861e-09       4.85964e-01       2.47191e-01       4.85964e-01      
 7.56000e-01       2.51463e-06       3.80448e-07       1.59339e-14       2.23727e-09       4.85964e-01       2.54215e-01       4.85964e-01      
 7.65000e-01       2.60039e-06       4.03466e-07       1.59710e-14       2.32740e-09       4.85964e-01       2.61281e-01       4.85964e-01      
 7.74000e-01       2.68608e-06       4.27256e-07       1.60061e-14       2.41902e-09       4.85964e-01       2.68387e-01       4.85964e-01      
 7.83000e-01       2.77167e-06       4.51817e-07       1.60395e-14       2.51209e-09       4.85964e-01       2.75531e-01       4.85964e-01      
 7.92000e-01       2.85713e-06       4.77147e-07       1.60712e-14       2.60662e-09       4.85964e-01       2.82711e-01       4.85964e-01      
 8.01000e-01       2.94242e-06       5.03245e-07       1.61013e-14       2.70261e-09       4.85964e-01       2.89925e-01       4.85964e-01      
 8.10000e-01       3.02752e-06       5.30110e-07       1.61301e-14       2.80004e-09       4.85964e-01       2.97171e-01       4.85964e-01      
 8.19000e-01       3.11241e-06       5.57740e-07       1.61575e-14       2.89891e-09       4.85964e-01       3.04448e-01       4.85964e-01      
 8.28000e-01       3.19707e-06       5.86133e-07       1.61837e-14       2.99923e-09       4.85964e-01       3.11755e-01       4.85964e-01      
 8.37000e-01       3.28148e-06       6.15287e-07       1.62087e-14       3.10100e-09       4.85964e-01       3.19090e-01       4.85964e-01      
 8.46000e-01       3.36562e-06       6.45199e-07       1.62327e-14       3.20421e-09       4.85964e-01       3.26452e-01       4.85964e-01      
 8.55000e-01       3.44949e-06       6.75867e-07       1.62557e-14       3.30887e-09       4.85964e-01       3.33841e-01       4.85964e-01      
 8.64000e-01       3.53306e-06       7.07288e-07       1.62778e-14       3.41499e-09       4.85964e-01       3.41255e-01       4.85964e-01      
 8.73000e-01       3.61632e-06       7.39460e-07       1.62990e-14       3.52258e-09       4.85964e-01       3.48694e-01       4.85964e-01      
 8.82000e-01       3.69925e-06       7.72380e-07       1.63195e-14       3.63164e-09       4.85964e-01       3.56157e-01       4.85964e-01      
 8.91000e-01       3.78186e-06       8.06045e-07       1.63391e-14       3.74218e-09       4.85964e-01       3.63642e-01       4.85964e-01      
 9.00000e-01       3.86412e-06       8.40452e-07       1.63581e-14       3.85421e-09       4.85964e-01       3.71151e-01       4.85964e-01      
 9.09000e-01       3.94603e-06       8.75597e-07       1.63764e-14       3.96774e-09       4.85964e-01       3.78682e-01       4.85964e-01      
 9.18000e-01       4.02757e-06       9.11478e-07       1.63941e-14       4.08280e-09       4.85964e-01       3.86235e-01       4.85964e-01      
 9.27000e-01       4.10873e-06       9.48091e-07       1.64112e-14       4.19938e-09       4.85964e-01       3.93809e-01       4.85964e-01      
 9.36000e-01       4.18951e-06       9.85432e-07       1.64278e-14       4.31752e-09       4.85964e-01       4.01403e-01       4.85964e-01      
 9.45000e-01       4.26989e-06       1.02350e-06       1.64439e-14       4.43721e-09       4.85964e-01       4.09019e-01       4.85964e-01      
 9.54000e-01       4.34987e-06       1.06229e-06       1.64595e-14       4.55849e-09       4.85964e-01       4.16655e-01       4.85964e-01      
 9.63000e-01       4.42943e-06       1.10179e-06       1.64746e-14       4.68137e-09       4.85964e-01       4.24311e-01       4.85964e-01      
 9.72000e-01       4.50856e-06       1.14201e-06       1.64893e-14       4.80588e-09       4.85964e-01       4.31987e-01       4.85964e-01      
 9.81000e-01       4.58725e-06       1.18294e-06       1.65036e-14       4.93202e-09       4.85964e-01       4.39682e-01       4.85964e-01      
 9.90000e-01       4.66550e-06       1.22458e-06       1.65174e-14       5.05983e-09       4.85964e-01       4.47397e-01       4.85964e-01      
 9.99000e-01       4.74330e-06       1.26692e-06       1.65310e-14       5.18933e-09       4.85964e-01       4.55132e-01       4.85964e-01      
 1.00800e+00       4.82063e-06       1.30996e-06       1.65441e-14       5.32054e-09       4.85964e-01       4.62886e-01       4.85964e-01      
 1.01700e+00       4.89748e-06       1.35369e-06       1.65570e-14       5.45349e-09       4.85964e-01       4.70659e-01       4.85964e-01      
 1.02600e+00       4.97384e-06       1.39811e-06       1.65695e-14       5.58821e-09       4.85964e-01       4.78451e-01       4.85964e-01      
 1.03500e+00       5.04971e-06       1.44321e-06       1.65817e-14       5.72473e-09       4.85964e-01       4.86262e-01       4.85964e-01      
 1.04400e+00       5.12508e-06       1.48900e-06       1.65937e-14       5.86307e-09       4.85964e-01       4.94093e-01       4.85964e-01      
 1.05300e+00       5.19993e-06       1.53546e-06       1.66053e-14       6.00326e-09       4.85964e-01       5.01942e-01       4.85964e-01      
 1.06200e+00       5.27425e-06       1.58259e-06       1.66167e-14       6.14535e-09       4.85964e-01       5.09810e-01       4.85964e-01      
 1.07100e+00       5.34804e-06       1.63039e-06       1.66279e-14       6.28936e-09       4.85964e-01       5.17697e-01       4.85964e-01      
 1.08000e+00       5.42129e-06       1.67885e-06       1.66388e-14       6.43533e-09       4.85964e-01       5.25603e-01       4.85964e-01      
 1.08900e+00       5.49398e-06       1.72797e-06       1.66495e-14       6.58329e-09       4.85964e-01       5.33529e-01       4.85964e-01      
 1.09800e+00       5.56611e-06       1.77774e-06       1.66599e-14       6.73328e-09       4.85964e-01       5.41473e-01       4.85964e-01      
 1.10700e+00       5.63767e-06       1.82816e-06       1.66702e-14       6.88535e-09       4.85964e-01       5.49436e-01       4.85964e-01      
 1.11600e+00       5.70865e-06       1.87922e-06       1.66802e-14       7.03954e-09       4.85964e-01       5.57418e-01       4.85964e-01      
 1.12500e+00       5.77903e-06       1.93091e-06       1.66900e-14       7.19588e-09       4.85964e-01       5.65419e-01       4.85964e-01      
 1.13400e+00       5.84882e-06       1.98323e-06       1.66997e-14       7.35443e-09       4.85964e-01       5.73439e-01       4.85964e-01      
 1.14300e+00       5.91800e-06       2.03618e-06       1.67091e-14       7.51522e-09       4.85964e-01       5.81479e-01       4.85964e-01      
 1.15200e+00       5.98656e-06       2.08975e-06       1.67184e-14       7.67832e-09       4.85964e-01       5.89537e-01       4.85964e-01      
 1.16100e+00       6.05450e-06       2.14394e-06       1.67275e-14       7.84376e-09       4.85964e-01       5.97615e-01       4.85964e-01      
 1.17000e+00       6.12181e-06       2.19873e-06       1.67365e-14       8.01161e-09       4.85964e-01       6.05712e-01       4.85964e-01      
 1.17900e+00       6.18848e-06       2.25413e-06       1.67453e-14       8.18191e-09       4.85964e-01       6.13829e-01       4.85964e-01      
 1.18800e+00       6.25450e-06       2.31012e-06       1.67539e-14       8.35473e-09       4.85964e-01       6.21965e-01       4.85964e-01      
 1.19700e+00       6.31986e-06       2.36670e-06       1.67624e-14       8.53013e-09       4.85964e-01       6.30121e-01       4.85964e-01      
 1.20600e+00       6.38457e-06       2.42387e-06       1.67708e-14       8.70816e-09       4.85964e-01       6.38296e-01       4.85964e-01      
 1.21500e+00       6.44860e-06       2.48162e-06       1.67790e-14       8.88889e-09       4.85964e-01       6.46491e-01       4.85964e-01      
