
dc (V)            getData("M0:gm    getData("M0:id    getData("M0:cg    getData("M0:gd    getData("M0:vt    getData("M0:vd    getData("M0:vt

 0.00000e+00       4.94280e-12       1.72249e-13       8.06905e-16       1.62247e-14       4.98964e-01       4.20545e-02       4.98964e-01      
 9.00000e-03       6.60660e-12       2.22995e-13       8.04069e-16       2.16884e-14       4.98964e-01       4.20546e-02       4.98964e-01      
 1.80000e-02       8.83000e-12       2.91216e-13       8.01341e-16       2.89910e-14       4.98964e-01       4.20546e-02       4.98964e-01      
 2.70000e-02       1.18010e-11       3.82748e-13       7.98726e-16       3.87510e-14       4.98964e-01       4.20547e-02       4.98964e-01      
 3.60000e-02       1.57705e-11       5.05390e-13       7.96230e-16       5.17945e-14       4.98964e-01       4.20547e-02       4.98964e-01      
 4.50000e-02       2.10737e-11       6.69560e-13       7.93862e-16       6.92246e-14       4.98964e-01       4.20548e-02       4.98964e-01      
 5.40000e-02       2.81575e-11       8.89178e-13       7.91633e-16       9.25148e-14       4.98964e-01       4.20549e-02       4.98964e-01      
 6.30000e-02       3.76186e-11       1.18283e-12       7.89558e-16       1.23632e-13       4.98964e-01       4.20551e-02       4.98964e-01      
 7.20000e-02       5.02524e-11       1.57532e-12       7.87654e-16       1.65202e-13       4.98964e-01       4.20553e-02       4.98964e-01      
 8.10000e-02       6.71194e-11       2.09975e-12       7.85943e-16       2.20728e-13       4.98964e-01       4.20555e-02       4.98964e-01      
 9.00000e-02       8.96326e-11       2.80031e-12       7.84453e-16       2.94884e-13       4.98964e-01       4.20559e-02       4.98964e-01      
 9.90000e-02       1.19673e-10       3.73589e-12       7.83218e-16       3.93902e-13       4.98964e-01       4.20563e-02       4.98964e-01      
 1.08000e-01       1.59746e-10       4.98501e-12       7.82277e-16       5.26088e-13       4.98964e-01       4.20570e-02       4.98964e-01      
 1.17000e-01       2.13179e-10       6.65227e-12       7.81680e-16       7.02508e-13       4.98964e-01       4.20578e-02       4.98964e-01      
 1.26000e-01       2.84381e-10       8.87689e-12       7.81459e-16       9.37886e-13       4.98964e-01       4.20589e-02       4.98964e-01      
 1.35000e-01       3.79211e-10       1.18440e-11       7.81699e-16       1.25180e-12       4.98964e-01       4.20604e-02       4.98964e-01      
 1.44000e-01       5.05434e-10       1.57997e-11       7.82498e-16       1.67027e-12       4.98964e-01       4.20624e-02       4.98964e-01      
 1.53000e-01       6.73317e-10       2.10707e-11       7.83952e-16       2.22783e-12       4.98964e-01       4.20651e-02       4.98964e-01      
 1.62000e-01       8.96413e-10       2.80903e-11       7.86178e-16       2.97027e-12       4.98964e-01       4.20686e-02       4.98964e-01      
 1.71000e-01       1.19257e-09       3.74324e-11       7.89308e-16       3.95820e-12       4.98964e-01       4.20733e-02       4.98964e-01      
 1.80000e-01       1.58526e-09       4.98557e-11       7.93492e-16       5.27170e-12       4.98964e-01       4.20796e-02       4.98964e-01      
 1.89000e-01       2.10519e-09       6.63616e-11       7.98901e-16       7.01637e-12       4.98964e-01       4.20879e-02       4.98964e-01      
 1.98000e-01       2.79249e-09       8.82684e-11       8.05723e-16       9.33110e-12       4.98964e-01       4.20990e-02       4.98964e-01      
 2.07000e-01       3.69930e-09       1.17308e-10       8.14162e-16       1.23980e-11       4.98964e-01       4.21136e-02       4.98964e-01      
 2.16000e-01       4.89310e-09       1.55747e-10       8.24438e-16       1.64552e-11       4.98964e-01       4.21329e-02       4.98964e-01      
 2.25000e-01       6.46071e-09       2.06545e-10       8.36779e-16       2.18125e-11       4.98964e-01       4.21585e-02       4.98964e-01      
 2.34000e-01       8.51311e-09       2.73548e-10       8.51416e-16       2.88710e-11       4.98964e-01       4.21921e-02       4.98964e-01      
 2.43000e-01       1.11912e-08       3.61729e-10       8.68579e-16       3.81476e-11       4.98964e-01       4.22363e-02       4.98964e-01      
 2.52000e-01       1.46722e-08       4.77491e-10       8.88485e-16       5.03030e-11       4.98964e-01       4.22943e-02       4.98964e-01      
 2.61000e-01       1.91769e-08       6.29021e-10       9.11332e-16       6.61760e-11       4.98964e-01       4.23699e-02       4.98964e-01      
 2.70000e-01       2.49777e-08       8.26724e-10       9.37288e-16       8.68206e-11       4.98964e-01       4.24682e-02       4.98964e-01      
 2.79000e-01       3.24060e-08       1.08371e-09       9.66488e-16       1.13548e-10       4.98964e-01       4.25955e-02       4.98964e-01      
 2.88000e-01       4.18596e-08       1.41638e-09       9.99019e-16       1.47966e-10       4.98964e-01       4.27592e-02       4.98964e-01      
 2.97000e-01       5.38088e-08       1.84503e-09       1.03492e-15       1.92021e-10       4.98964e-01       4.29688e-02       4.98964e-01      
 3.06000e-01       6.88001e-08       2.39452e-09       1.07418e-15       2.48026e-10       4.98964e-01       4.32349e-02       4.98964e-01      
 3.15000e-01       8.74566e-08       3.09501e-09       1.11673e-15       3.18676e-10       4.98964e-01       4.35703e-02       4.98964e-01      
 3.24000e-01       1.10474e-07       3.98257e-09       1.16243e-15       4.07042e-10       4.98964e-01       4.39893e-02       4.98964e-01      
 3.33000e-01       1.38611e-07       5.09984e-09       1.21111e-15       5.16530e-10       4.98964e-01       4.45076e-02       4.98964e-01      
 3.42000e-01       1.72675e-07       6.49652e-09       1.26254e-15       6.50811e-10       4.98964e-01       4.51421e-02       4.98964e-01      
 3.51000e-01       2.13499e-07       8.22971e-09       1.31643e-15       8.13710e-10       4.98964e-01       4.59102e-02       4.98964e-01      
 3.60000e-01       2.61916e-07       1.03641e-08       1.37246e-15       1.00906e-09       4.98964e-01       4.68289e-02       4.98964e-01      
 3.69000e-01       3.18729e-07       1.29716e-08       1.43027e-15       1.24056e-09       4.98964e-01       4.79143e-02       4.98964e-01      
 3.78000e-01       3.84684e-07       1.61312e-08       1.48948e-15       1.51157e-09       4.98964e-01       4.91806e-02       4.98964e-01      
 3.87000e-01       4.60444e-07       1.99284e-08       1.54970e-15       1.82503e-09       4.98964e-01       5.06396e-02       4.98964e-01      
 3.96000e-01       5.46583e-07       2.44540e-08       1.61053e-15       2.18330e-09       4.98964e-01       5.23002e-02       4.98964e-01      
 4.05000e-01       6.43587e-07       2.98038e-08       1.67157e-15       2.58818e-09       4.98964e-01       5.41680e-02       4.98964e-01      
 4.14000e-01       7.51878e-07       3.60774e-08       1.73243e-15       3.04086e-09       4.98964e-01       5.62459e-02       4.98964e-01      
 4.23000e-01       8.71848e-07       4.33784e-08       1.79275e-15       3.54204e-09       4.98964e-01       5.85341e-02       4.98964e-01      
 4.32000e-01       1.00390e-06       5.18134e-08       1.85220e-15       4.09200e-09       4.98964e-01       6.10309e-02       4.98964e-01      
 4.41000e-01       1.14846e-06       6.14933e-08       1.91046e-15       4.69075e-09       4.98964e-01       6.37333e-02       4.98964e-01      
 4.50000e-01       1.30604e-06       7.25329e-08       1.96726e-15       5.33815e-09       4.98964e-01       6.66373e-02       4.98964e-01      
 4.59000e-01       1.47720e-06       8.50519e-08       2.02238e-15       6.03398e-09       4.98964e-01       6.97389e-02       4.98964e-01      
 4.68000e-01       1.66257e-06       9.91752e-08       2.07563e-15       6.77805e-09       4.98964e-01       7.30341e-02       4.98964e-01      
 4.77000e-01       1.86278e-06       1.15034e-07       2.12685e-15       7.57023e-09       4.98964e-01       7.65188e-02       4.98964e-01      
 4.86000e-01       2.07848e-06       1.32764e-07       2.17593e-15       8.41046e-09       4.98964e-01       8.01898e-02       4.98964e-01      
 4.95000e-01       2.31025e-06       1.52507e-07       2.22278e-15       9.29878e-09       4.98964e-01       8.40437e-02       4.98964e-01      
 5.04000e-01       2.55857e-06       1.74412e-07       2.26738e-15       1.02352e-08       4.98964e-01       8.80775e-02       4.98964e-01      
 5.13000e-01       2.82383e-06       1.98627e-07       2.30968e-15       1.12199e-08       4.98964e-01       9.22882e-02       4.98964e-01      
 5.22000e-01       3.10624e-06       2.25308e-07       2.34972e-15       1.22529e-08       4.98964e-01       9.66727e-02       4.98964e-01      
 5.31000e-01       3.40586e-06       2.54608e-07       2.38751e-15       1.33343e-08       4.98964e-01       1.01228e-01       4.98964e-01      
 5.40000e-01       3.72256e-06       2.86682e-07       2.42311e-15       1.44640e-08       4.98964e-01       1.05949e-01       4.98964e-01      
 5.49000e-01       4.05605e-06       3.21682e-07       2.45658e-15       1.56419e-08       4.98964e-01       1.10834e-01       4.98964e-01      
 5.58000e-01       4.40585e-06       3.59759e-07       2.48800e-15       1.68678e-08       4.98964e-01       1.15877e-01       4.98964e-01      
 5.67000e-01       4.77135e-06       4.01055e-07       2.51745e-15       1.81413e-08       4.98964e-01       1.21073e-01       4.98964e-01      
 5.76000e-01       5.15179e-06       4.45708e-07       2.54503e-15       1.94621e-08       4.98964e-01       1.26417e-01       4.98964e-01      
 5.85000e-01       5.54630e-06       4.93850e-07       2.57082e-15       2.08295e-08       4.98964e-01       1.31904e-01       4.98964e-01      
 5.94000e-01       5.95391e-06       5.45602e-07       2.59493e-15       2.22429e-08       4.98964e-01       1.37527e-01       4.98964e-01      
 6.03000e-01       6.37359e-06       6.01078e-07       2.61745e-15       2.37017e-08       4.98964e-01       1.43280e-01       4.98964e-01      
 6.12000e-01       6.80428e-06       6.60382e-07       2.63848e-15       2.52049e-08       4.98964e-01       1.49157e-01       4.98964e-01      
 6.21000e-01       7.24488e-06       7.23607e-07       2.65811e-15       2.67518e-08       4.98964e-01       1.55151e-01       4.98964e-01      
 6.30000e-01       7.69430e-06       7.90838e-07       2.67645e-15       2.83414e-08       4.98964e-01       1.61256e-01       4.98964e-01      
 6.39000e-01       8.15145e-06       8.62149e-07       2.69356e-15       2.99728e-08       4.98964e-01       1.67464e-01       4.98964e-01      
 6.48000e-01       8.61531e-06       9.37606e-07       2.70954e-15       3.16451e-08       4.98964e-01       1.73770e-01       4.98964e-01      
 6.57000e-01       9.08486e-06       1.01726e-06       2.72448e-15       3.33572e-08       4.98964e-01       1.80168e-01       4.98964e-01      
 6.66000e-01       9.55917e-06       1.10117e-06       2.73844e-15       3.51083e-08       4.98964e-01       1.86651e-01       4.98964e-01      
 6.75000e-01       1.00373e-05       1.18936e-06       2.75149e-15       3.68974e-08       4.98964e-01       1.93212e-01       4.98964e-01      
 6.84000e-01       1.05185e-05       1.28187e-06       2.76371e-15       3.87236e-08       4.98964e-01       1.99848e-01       4.98964e-01      
 6.93000e-01       1.10020e-05       1.37872e-06       2.77515e-15       4.05861e-08       4.98964e-01       2.06552e-01       4.98964e-01      
 7.02000e-01       1.14871e-05       1.47993e-06       2.78588e-15       4.24840e-08       4.98964e-01       2.13320e-01       4.98964e-01      
 7.11000e-01       1.19731e-05       1.58551e-06       2.79595e-15       4.44165e-08       4.98964e-01       2.20145e-01       4.98964e-01      
 7.20000e-01       1.24595e-05       1.69546e-06       2.80541e-15       4.63829e-08       4.98964e-01       2.27025e-01       4.98964e-01      
 7.29000e-01       1.29458e-05       1.80979e-06       2.81430e-15       4.83824e-08       4.98964e-01       2.33955e-01       4.98964e-01      
 7.38000e-01       1.34315e-05       1.92850e-06       2.82267e-15       5.04145e-08       4.98964e-01       2.40931e-01       4.98964e-01      
 7.47000e-01       1.39162e-05       2.05157e-06       2.83056e-15       5.24784e-08       4.98964e-01       2.47949e-01       4.98964e-01      
 7.56000e-01       1.43995e-05       2.17899e-06       2.83801e-15       5.45738e-08       4.98964e-01       2.55007e-01       4.98964e-01      
 7.65000e-01       1.48812e-05       2.31076e-06       2.84505e-15       5.67000e-08       4.98964e-01       2.62100e-01       4.98964e-01      
 7.74000e-01       1.53610e-05       2.44686e-06       2.85171e-15       5.88567e-08       4.98964e-01       2.69227e-01       4.98964e-01      
 7.83000e-01       1.58386e-05       2.58726e-06       2.85802e-15       6.10433e-08       4.98964e-01       2.76384e-01       4.98964e-01      
 7.92000e-01       1.63139e-05       2.73195e-06       2.86400e-15       6.32597e-08       4.98964e-01       2.83569e-01       4.98964e-01      
 8.01000e-01       1.67866e-05       2.88091e-06       2.86969e-15       6.55053e-08       4.98964e-01       2.90780e-01       4.98964e-01      
 8.10000e-01       1.72565e-05       3.03411e-06       2.87510e-15       6.77800e-08       4.98964e-01       2.98016e-01       4.98964e-01      
 8.19000e-01       1.77236e-05       3.19152e-06       2.88025e-15       7.00835e-08       4.98964e-01       3.05273e-01       4.98964e-01      
 8.28000e-01       1.81878e-05       3.35313e-06       2.88516e-15       7.24157e-08       4.98964e-01       3.12551e-01       4.98964e-01      
 8.37000e-01       1.86489e-05       3.51889e-06       2.88985e-15       7.47763e-08       4.98964e-01       3.19849e-01       4.98964e-01      
 8.46000e-01       1.91068e-05       3.68880e-06       2.89433e-15       7.71652e-08       4.98964e-01       3.27164e-01       4.98964e-01      
 8.55000e-01       1.95614e-05       3.86280e-06       2.89863e-15       7.95824e-08       4.98964e-01       3.34496e-01       4.98964e-01      
 8.64000e-01       2.00128e-05       4.04089e-06       2.90274e-15       8.20279e-08       4.98964e-01       3.41843e-01       4.98964e-01      
 8.73000e-01       2.04608e-05       4.22302e-06       2.90669e-15       8.45015e-08       4.98964e-01       3.49205e-01       4.98964e-01      
 8.82000e-01       2.09054e-05       4.40917e-06       2.91049e-15       8.70032e-08       4.98964e-01       3.56580e-01       4.98964e-01      
 8.91000e-01       2.13464e-05       4.59930e-06       2.91414e-15       8.95332e-08       4.98964e-01       3.63969e-01       4.98964e-01      
 9.00000e-01       2.17840e-05       4.79339e-06       2.91766e-15       9.20915e-08       4.98964e-01       3.71369e-01       4.98964e-01      
 9.09000e-01       2.22180e-05       4.99139e-06       2.92105e-15       9.46781e-08       4.98964e-01       3.78781e-01       4.98964e-01      
 9.18000e-01       2.26485e-05       5.19329e-06       2.92433e-15       9.72933e-08       4.98964e-01       3.86204e-01       4.98964e-01      
 9.27000e-01       2.30753e-05       5.39905e-06       2.92749e-15       9.99370e-08       4.98964e-01       3.93637e-01       4.98964e-01      
 9.36000e-01       2.34984e-05       5.60862e-06       2.93055e-15       1.02609e-07       4.98964e-01       4.01080e-01       4.98964e-01      
 9.45000e-01       2.39179e-05       5.82199e-06       2.93351e-15       1.05311e-07       4.98964e-01       4.08533e-01       4.98964e-01      
 9.54000e-01       2.43336e-05       6.03912e-06       2.93638e-15       1.08042e-07       4.98964e-01       4.15996e-01       4.98964e-01      
 9.63000e-01       2.47456e-05       6.25998e-06       2.93917e-15       1.10802e-07       4.98964e-01       4.23467e-01       4.98964e-01      
 9.72000e-01       2.51538e-05       6.48452e-06       2.94187e-15       1.13591e-07       4.98964e-01       4.30947e-01       4.98964e-01      
 9.81000e-01       2.55582e-05       6.71272e-06       2.94450e-15       1.16411e-07       4.98964e-01       4.38436e-01       4.98964e-01      
 9.90000e-01       2.59587e-05       6.94454e-06       2.94705e-15       1.19260e-07       4.98964e-01       4.45933e-01       4.98964e-01      
 9.99000e-01       2.63554e-05       7.17995e-06       2.94954e-15       1.22141e-07       4.98964e-01       4.53438e-01       4.98964e-01      
 1.00800e+00       2.67482e-05       7.41891e-06       2.95196e-15       1.25052e-07       4.98964e-01       4.60951e-01       4.98964e-01      
 1.01700e+00       2.71371e-05       7.66139e-06       2.95432e-15       1.27994e-07       4.98964e-01       4.68473e-01       4.98964e-01      
 1.02600e+00       2.75221e-05       7.90735e-06       2.95662e-15       1.30968e-07       4.98964e-01       4.76002e-01       4.98964e-01      
 1.03500e+00       2.79031e-05       8.15676e-06       2.95887e-15       1.33973e-07       4.98964e-01       4.83539e-01       4.98964e-01      
 1.04400e+00       2.82801e-05       8.40958e-06       2.96106e-15       1.37011e-07       4.98964e-01       4.91084e-01       4.98964e-01      
 1.05300e+00       2.86531e-05       8.66578e-06       2.96320e-15       1.40082e-07       4.98964e-01       4.98637e-01       4.98964e-01      
 1.06200e+00       2.90221e-05       8.92531e-06       2.96530e-15       1.43186e-07       4.98964e-01       5.06197e-01       4.98964e-01      
 1.07100e+00       2.93870e-05       9.18815e-06       2.96734e-15       1.46324e-07       4.98964e-01       5.13766e-01       4.98964e-01      
 1.08000e+00       2.97478e-05       9.45425e-06       2.96935e-15       1.49496e-07       4.98964e-01       5.21342e-01       4.98964e-01      
 1.08900e+00       3.01046e-05       9.72358e-06       2.97131e-15       1.52702e-07       4.98964e-01       5.28926e-01       4.98964e-01      
 1.09800e+00       3.04571e-05       9.99611e-06       2.97324e-15       1.55944e-07       4.98964e-01       5.36519e-01       4.98964e-01      
 1.10700e+00       3.08056e-05       1.02718e-05       2.97512e-15       1.59222e-07       4.98964e-01       5.44119e-01       4.98964e-01      
 1.11600e+00       3.11498e-05       1.05506e-05       2.97697e-15       1.62536e-07       4.98964e-01       5.51727e-01       4.98964e-01      
 1.12500e+00       3.14899e-05       1.08325e-05       2.97878e-15       1.65887e-07       4.98964e-01       5.59344e-01       4.98964e-01      
 1.13400e+00       3.18258e-05       1.11174e-05       2.98056e-15       1.69275e-07       4.98964e-01       5.66968e-01       4.98964e-01      
 1.14300e+00       3.21574e-05       1.14053e-05       2.98231e-15       1.72702e-07       4.98964e-01       5.74601e-01       4.98964e-01      
 1.15200e+00       3.24848e-05       1.16962e-05       2.98403e-15       1.76168e-07       4.98964e-01       5.82243e-01       4.98964e-01      
 1.16100e+00       3.28080e-05       1.19900e-05       2.98571e-15       1.79673e-07       4.98964e-01       5.89892e-01       4.98964e-01      
 1.17000e+00       3.31268e-05       1.22867e-05       2.98737e-15       1.83218e-07       4.98964e-01       5.97551e-01       4.98964e-01      
 1.17900e+00       3.34414e-05       1.25862e-05       2.98900e-15       1.86805e-07       4.98964e-01       6.05218e-01       4.98964e-01      
 1.18800e+00       3.37516e-05       1.28886e-05       2.99061e-15       1.90434e-07       4.98964e-01       6.12894e-01       4.98964e-01      
 1.19700e+00       3.40576e-05       1.31938e-05       2.99218e-15       1.94105e-07       4.98964e-01       6.20580e-01       4.98964e-01      
 1.20600e+00       3.43592e-05       1.35016e-05       2.99374e-15       1.97820e-07       4.98964e-01       6.28274e-01       4.98964e-01      
 1.21500e+00       3.46565e-05       1.38122e-05       2.99527e-15       2.01579e-07       4.98964e-01       6.35977e-01       4.98964e-01      
