
dc (V)            getData("M0:gm    getData("M0:id    getData("M0:cg    getData("M0:gd    getData("M0:vt    getData("M0:vd    getData("M0:vt

 0.00000e+00       1.73039e-12       7.21142e-14       2.06152e-15       2.36587e-15       4.89479e-01       3.99407e-02       4.89479e-01      
 9.00000e-03       2.31887e-12       8.93247e-14       2.05333e-15       3.17085e-15       4.89479e-01       3.99407e-02       4.89479e-01      
 1.80000e-02       3.10731e-12       1.12786e-13       2.04548e-15       4.24955e-15       4.89479e-01       3.99408e-02       4.89479e-01      
 2.70000e-02       4.16355e-12       1.44581e-13       2.03799e-15       5.69496e-15       4.89479e-01       3.99408e-02       4.89479e-01      
 3.60000e-02       5.57839e-12       1.87501e-13       2.03089e-15       7.63162e-15       4.89479e-01       3.99409e-02       4.89479e-01      
 4.50000e-02       7.47337e-12       2.45287e-13       2.02419e-15       1.02263e-14       4.89479e-01       3.99410e-02       4.89479e-01      
 5.40000e-02       1.00110e-11       3.22953e-13       2.01795e-15       1.37021e-14       4.89479e-01       3.99411e-02       4.89479e-01      
 6.30000e-02       1.34087e-11       4.27209e-13       2.01221e-15       1.83579e-14       4.89479e-01       3.99413e-02       4.89479e-01      
 7.20000e-02       1.79571e-11       5.67040e-13       2.00704e-15       2.45934e-14       4.89479e-01       3.99415e-02       4.89479e-01      
 8.10000e-02       2.40443e-11       7.54462e-13       2.00250e-15       3.29431e-14       4.89479e-01       3.99418e-02       4.89479e-01      
 9.00000e-02       3.21888e-11       1.00555e-12       1.99870e-15       4.41221e-14       4.89479e-01       3.99423e-02       4.89479e-01      
 9.90000e-02       4.30823e-11       1.34178e-12       1.99575e-15       5.90857e-14       4.89479e-01       3.99428e-02       4.89479e-01      
 1.08000e-01       5.76471e-11       1.79187e-12       1.99379e-15       7.91101e-14       4.89479e-01       3.99436e-02       4.89479e-01      
 1.17000e-01       7.71117e-11       2.39412e-12       1.99298e-15       1.05899e-13       4.89479e-01       3.99446e-02       4.89479e-01      
 1.26000e-01       1.03108e-10       3.19966e-12       1.99348e-15       1.41724e-13       4.89479e-01       3.99459e-02       4.89479e-01      
 1.35000e-01       1.37802e-10       4.27657e-12       1.99551e-15       1.89612e-13       4.89479e-01       3.99477e-02       4.89479e-01      
 1.44000e-01       1.84074e-10       5.71554e-12       1.99941e-15       2.53592e-13       4.89479e-01       3.99501e-02       4.89479e-01      
 1.53000e-01       2.45736e-10       7.63716e-12       2.00553e-15       3.39019e-13       4.89479e-01       3.99533e-02       4.89479e-01      
 1.62000e-01       3.27820e-10       1.02016e-11       2.01423e-15       4.53005e-13       4.89479e-01       3.99576e-02       4.89479e-01      
 1.71000e-01       4.36962e-10       1.36213e-11       2.02595e-15       6.04972e-13       4.89479e-01       3.99633e-02       4.89479e-01      
 1.80000e-01       5.81879e-10       1.81772e-11       2.04118e-15       8.07382e-13       4.89479e-01       3.99708e-02       4.89479e-01      
 1.89000e-01       7.73989e-10       2.42407e-11       2.06048e-15       1.07667e-12       4.89479e-01       3.99809e-02       4.89479e-01      
 1.98000e-01       1.02818e-09       3.23008e-11       2.08443e-15       1.43447e-12       4.89479e-01       3.99943e-02       4.89479e-01      
 2.07000e-01       1.36378e-09       4.29996e-11       2.11369e-15       1.90911e-12       4.89479e-01       4.00121e-02       4.89479e-01      
 2.16000e-01       1.80576e-09       5.71778e-11       2.14892e-15       2.53761e-12       4.89479e-01       4.00356e-02       4.89479e-01      
 2.25000e-01       2.38612e-09       7.59315e-11       2.19080e-15       3.36804e-12       4.89479e-01       4.00667e-02       4.89479e-01      
 2.34000e-01       3.14567e-09       1.00683e-10       2.24003e-15       4.46253e-12       4.89479e-01       4.01076e-02       4.89479e-01      
 2.43000e-01       4.13596e-09       1.33269e-10       2.29724e-15       5.90080e-12       4.89479e-01       4.01614e-02       4.89479e-01      
 2.52000e-01       5.42150e-09       1.76047e-10       2.36303e-15       7.78437e-12       4.89479e-01       4.02317e-02       4.89479e-01      
 2.61000e-01       7.08220e-09       2.32022e-10       2.43790e-15       1.02413e-11       4.89479e-01       4.03235e-02       4.89479e-01      
 2.70000e-01       9.21590e-09       3.04998e-10       2.52227e-15       1.34316e-11       4.89479e-01       4.04425e-02       4.89479e-01      
 2.79000e-01       1.19408e-08       3.99750e-10       2.61640e-15       1.75523e-11       4.89479e-01       4.05961e-02       4.89479e-01      
 2.88000e-01       1.53976e-08       5.22218e-10       2.72042e-15       2.28430e-11       4.89479e-01       4.07931e-02       4.89479e-01      
 2.97000e-01       1.97513e-08       6.79714e-10       2.83429e-15       2.95900e-11       4.89479e-01       4.10438e-02       4.89479e-01      
 3.06000e-01       2.51919e-08       8.81151e-10       2.95782e-15       3.81289e-11       4.89479e-01       4.13604e-02       4.89479e-01      
 3.15000e-01       3.19342e-08       1.13726e-09       3.09062e-15       4.88446e-11       4.89479e-01       4.17567e-02       4.89479e-01      
 3.24000e-01       4.02157e-08       1.46083e-09       3.23217e-15       6.21681e-11       4.89479e-01       4.22479e-02       4.89479e-01      
 3.33000e-01       5.02935e-08       1.86684e-09       3.38177e-15       7.85681e-11       4.89479e-01       4.28501e-02       4.89479e-01      
 3.42000e-01       6.24378e-08       2.37269e-09       3.53858e-15       9.85393e-11       4.89479e-01       4.35801e-02       4.89479e-01      
 3.51000e-01       7.69250e-08       2.99822e-09       3.70165e-15       1.22586e-10       4.89479e-01       4.44542e-02       4.89479e-01      
 3.60000e-01       9.40283e-08       3.76576e-09       3.86992e-15       1.51201e-10       4.89479e-01       4.54879e-02       4.89479e-01      
 3.69000e-01       1.14009e-07       4.70005e-09       4.04226e-15       1.84851e-10       4.89479e-01       4.66949e-02       4.89479e-01      
 3.78000e-01       1.37107e-07       5.82810e-09       4.21750e-15       2.23952e-10       4.89479e-01       4.80864e-02       4.89479e-01      
 3.87000e-01       1.63539e-07       7.17896e-09       4.39445e-15       2.68861e-10       4.89479e-01       4.96708e-02       4.89479e-01      
 3.96000e-01       1.93496e-07       8.78352e-09       4.57193e-15       3.19866e-10       4.89479e-01       5.14537e-02       4.89479e-01      
 4.05000e-01       2.27151e-07       1.06743e-08       4.74881e-15       3.77189e-10       4.89479e-01       5.34379e-02       4.89479e-01      
 4.14000e-01       2.64669e-07       1.28854e-08       4.92401e-15       4.40990e-10       4.89479e-01       5.56237e-02       4.89479e-01      
 4.23000e-01       3.06216e-07       1.54522e-08       5.09654e-15       5.11377e-10       4.89479e-01       5.80097e-02       4.89479e-01      
 4.32000e-01       3.51972e-07       1.84119e-08       5.26550e-15       5.88424e-10       4.89479e-01       6.05933e-02       4.89479e-01      
 4.41000e-01       4.02134e-07       2.18032e-08       5.43012e-15       6.72183e-10       4.89479e-01       6.33713e-02       4.89479e-01      
 4.50000e-01       4.56923e-07       2.56667e-08       5.58971e-15       7.62694e-10       4.89479e-01       6.63401e-02       4.89479e-01      
 4.59000e-01       5.16574e-07       3.00452e-08       5.74373e-15       8.59996e-10       4.89479e-01       6.94964e-02       4.89479e-01      
 4.68000e-01       5.81331e-07       3.49835e-08       5.89175e-15       9.64133e-10       4.89479e-01       7.28372e-02       4.89479e-01      
 4.77000e-01       6.51432e-07       4.05285e-08       6.03343e-15       1.07515e-09       4.89479e-01       7.63595e-02       4.89479e-01      
 4.86000e-01       7.27098e-07       4.67296e-08       6.16858e-15       1.19311e-09       4.89479e-01       8.00611e-02       4.89479e-01      
 4.95000e-01       8.08523e-07       5.36376e-08       6.29706e-15       1.31806e-09       4.89479e-01       8.39394e-02       4.89479e-01      
 5.04000e-01       8.95854e-07       6.13050e-08       6.41884e-15       1.45006e-09       4.89479e-01       8.79920e-02       4.89479e-01      
 5.13000e-01       9.89192e-07       6.97855e-08       6.53396e-15       1.58914e-09       4.89479e-01       9.22166e-02       4.89479e-01      
 5.22000e-01       1.08858e-06       7.91334e-08       6.64252e-15       1.73537e-09       4.89479e-01       9.66103e-02       4.89479e-01      
 5.31000e-01       1.19400e-06       8.94032e-08       6.74468e-15       1.88874e-09       4.89479e-01       1.01170e-01       4.89479e-01      
 5.40000e-01       1.30538e-06       1.00649e-07       6.84064e-15       2.04929e-09       4.89479e-01       1.05892e-01       4.89479e-01      
 5.49000e-01       1.42258e-06       1.12923e-07       6.93063e-15       2.21700e-09       4.89479e-01       1.10773e-01       4.89479e-01      
 5.58000e-01       1.54542e-06       1.26278e-07       7.01491e-15       2.39183e-09       4.89479e-01       1.15808e-01       4.89479e-01      
 5.67000e-01       1.67367e-06       1.40763e-07       7.09375e-15       2.57377e-09       4.89479e-01       1.20991e-01       4.89479e-01      
 5.76000e-01       1.80704e-06       1.56426e-07       7.16743e-15       2.76273e-09       4.89479e-01       1.26319e-01       4.89479e-01      
 5.85000e-01       1.94525e-06       1.73311e-07       7.23624e-15       2.95865e-09       4.89479e-01       1.31786e-01       4.89479e-01      
 5.94000e-01       2.08794e-06       1.91460e-07       7.30047e-15       3.16144e-09       4.89479e-01       1.37384e-01       4.89479e-01      
 6.03000e-01       2.23479e-06       2.10913e-07       7.36040e-15       3.37100e-09       4.89479e-01       1.43110e-01       4.89479e-01      
 6.12000e-01       2.38544e-06       2.31705e-07       7.41632e-15       3.58723e-09       4.89479e-01       1.48956e-01       4.89479e-01      
 6.21000e-01       2.53952e-06       2.53868e-07       7.46849e-15       3.81000e-09       4.89479e-01       1.54916e-01       4.89479e-01      
 6.30000e-01       2.69669e-06       2.77432e-07       7.51717e-15       4.03920e-09       4.89479e-01       1.60984e-01       4.89479e-01      
 6.39000e-01       2.85661e-06       3.02423e-07       7.56260e-15       4.27471e-09       4.89479e-01       1.67154e-01       4.89479e-01      
 6.48000e-01       3.01894e-06       3.28865e-07       7.60502e-15       4.51640e-09       4.89479e-01       1.73420e-01       4.89479e-01      
 6.57000e-01       3.18338e-06       3.56777e-07       7.64465e-15       4.76415e-09       4.89479e-01       1.79777e-01       4.89479e-01      
 6.66000e-01       3.34962e-06       3.86178e-07       7.68170e-15       5.01784e-09       4.89479e-01       1.86219e-01       4.89479e-01      
 6.75000e-01       3.51739e-06       4.17081e-07       7.71636e-15       5.27735e-09       4.89479e-01       1.92740e-01       4.89479e-01      
 6.84000e-01       3.68645e-06       4.49501e-07       7.74881e-15       5.54258e-09       4.89479e-01       1.99336e-01       4.89479e-01      
 6.93000e-01       3.85654e-06       4.83446e-07       7.77922e-15       5.81341e-09       4.89479e-01       2.06001e-01       4.89479e-01      
 7.02000e-01       4.02747e-06       5.18927e-07       7.80774e-15       6.08975e-09       4.89479e-01       2.12732e-01       4.89479e-01      
 7.11000e-01       4.19904e-06       5.55948e-07       7.83453e-15       6.37150e-09       4.89479e-01       2.19524e-01       4.89479e-01      
 7.20000e-01       4.37107e-06       5.94516e-07       7.85971e-15       6.65858e-09       4.89479e-01       2.26373e-01       4.89479e-01      
 7.29000e-01       4.54341e-06       6.34633e-07       7.88342e-15       6.95090e-09       4.89479e-01       2.33275e-01       4.89479e-01      
 7.38000e-01       4.71593e-06       6.76302e-07       7.90576e-15       7.24839e-09       4.89479e-01       2.40227e-01       4.89479e-01      
 7.47000e-01       4.88849e-06       7.19524e-07       7.92683e-15       7.55099e-09       4.89479e-01       2.47227e-01       4.89479e-01      
 7.56000e-01       5.06099e-06       7.64298e-07       7.94674e-15       7.85864e-09       4.89479e-01       2.54270e-01       4.89479e-01      
 7.65000e-01       5.23333e-06       8.10624e-07       7.96558e-15       8.17128e-09       4.89479e-01       2.61354e-01       4.89479e-01      
 7.74000e-01       5.40543e-06       8.58500e-07       7.98342e-15       8.48888e-09       4.89479e-01       2.68478e-01       4.89479e-01      
 7.83000e-01       5.57721e-06       9.07924e-07       8.00035e-15       8.81139e-09       4.89479e-01       2.75638e-01       4.89479e-01      
 7.92000e-01       5.74860e-06       9.58891e-07       8.01642e-15       9.13878e-09       4.89479e-01       2.82832e-01       4.89479e-01      
 8.01000e-01       5.91954e-06       1.01140e-06       8.03171e-15       9.47103e-09       4.89479e-01       2.90059e-01       4.89479e-01      
 8.10000e-01       6.08998e-06       1.06544e-06       8.04627e-15       9.80812e-09       4.89479e-01       2.97317e-01       4.89479e-01      
 8.19000e-01       6.25988e-06       1.12102e-06       8.06015e-15       1.01500e-08       4.89479e-01       3.04605e-01       4.89479e-01      
 8.28000e-01       6.42919e-06       1.17812e-06       8.07341e-15       1.04968e-08       4.89479e-01       3.11921e-01       4.89479e-01      
 8.37000e-01       6.59788e-06       1.23674e-06       8.08608e-15       1.08483e-08       4.89479e-01       3.19263e-01       4.89479e-01      
 8.46000e-01       6.76591e-06       1.29688e-06       8.09821e-15       1.12047e-08       4.89479e-01       3.26631e-01       4.89479e-01      
 8.55000e-01       6.93325e-06       1.35852e-06       8.10984e-15       1.15659e-08       4.89479e-01       3.34023e-01       4.89479e-01      
 8.64000e-01       7.09987e-06       1.42167e-06       8.12100e-15       1.19319e-08       4.89479e-01       3.41439e-01       4.89479e-01      
 8.73000e-01       7.26575e-06       1.48632e-06       8.13172e-15       1.23028e-08       4.89479e-01       3.48878e-01       4.89479e-01      
 8.82000e-01       7.43086e-06       1.55245e-06       8.14203e-15       1.26786e-08       4.89479e-01       3.56338e-01       4.89479e-01      
 8.91000e-01       7.59519e-06       1.62007e-06       8.15196e-15       1.30593e-08       4.89479e-01       3.63820e-01       4.89479e-01      
 9.00000e-01       7.75870e-06       1.68916e-06       8.16154e-15       1.34449e-08       4.89479e-01       3.71323e-01       4.89479e-01      
 9.09000e-01       7.92138e-06       1.75972e-06       8.17078e-15       1.38355e-08       4.89479e-01       3.78845e-01       4.89479e-01      
 9.18000e-01       8.08321e-06       1.83174e-06       8.17970e-15       1.42311e-08       4.89479e-01       3.86388e-01       4.89479e-01      
 9.27000e-01       8.24417e-06       1.90521e-06       8.18833e-15       1.46317e-08       4.89479e-01       3.93949e-01       4.89479e-01      
 9.36000e-01       8.40424e-06       1.98013e-06       8.19669e-15       1.50375e-08       4.89479e-01       4.01529e-01       4.89479e-01      
 9.45000e-01       8.56340e-06       2.05648e-06       8.20478e-15       1.54484e-08       4.89479e-01       4.09128e-01       4.89479e-01      
 9.54000e-01       8.72163e-06       2.13427e-06       8.21263e-15       1.58644e-08       4.89479e-01       4.16745e-01       4.89479e-01      
 9.63000e-01       8.87892e-06       2.21347e-06       8.22024e-15       1.62858e-08       4.89479e-01       4.24380e-01       4.89479e-01      
 9.72000e-01       9.03524e-06       2.29408e-06       8.22764e-15       1.67124e-08       4.89479e-01       4.32033e-01       4.89479e-01      
 9.81000e-01       9.19058e-06       2.37609e-06       8.23483e-15       1.71445e-08       4.89479e-01       4.39703e-01       4.89479e-01      
 9.90000e-01       9.34492e-06       2.45950e-06       8.24182e-15       1.75820e-08       4.89479e-01       4.47390e-01       4.89479e-01      
 9.99000e-01       9.49825e-06       2.54429e-06       8.24863e-15       1.80250e-08       4.89479e-01       4.55095e-01       4.89479e-01      
 1.00800e+00       9.65054e-06       2.63046e-06       8.25526e-15       1.84736e-08       4.89479e-01       4.62816e-01       4.89479e-01      
 1.01700e+00       9.80177e-06       2.71800e-06       8.26172e-15       1.89279e-08       4.89479e-01       4.70555e-01       4.89479e-01      
 1.02600e+00       9.95194e-06       2.80689e-06       8.26802e-15       1.93879e-08       4.89479e-01       4.78310e-01       4.89479e-01      
 1.03500e+00       1.01010e-05       2.89712e-06       8.27417e-15       1.98538e-08       4.89479e-01       4.86082e-01       4.89479e-01      
 1.04400e+00       1.02490e-05       2.98870e-06       8.28018e-15       2.03256e-08       4.89479e-01       4.93871e-01       4.89479e-01      
 1.05300e+00       1.03958e-05       3.08160e-06       8.28604e-15       2.08034e-08       4.89479e-01       5.01677e-01       4.89479e-01      
 1.06200e+00       1.05415e-05       3.17581e-06       8.29178e-15       2.12874e-08       4.89479e-01       5.09500e-01       4.89479e-01      
 1.07100e+00       1.06861e-05       3.27134e-06       8.29739e-15       2.17776e-08       4.89479e-01       5.17339e-01       4.89479e-01      
 1.08000e+00       1.08294e-05       3.36815e-06       8.30287e-15       2.22741e-08       4.89479e-01       5.25194e-01       4.89479e-01      
 1.08900e+00       1.09716e-05       3.46626e-06       8.30824e-15       2.27771e-08       4.89479e-01       5.33067e-01       4.89479e-01      
 1.09800e+00       1.11126e-05       3.56564e-06       8.31350e-15       2.32866e-08       4.89479e-01       5.40956e-01       4.89479e-01      
 1.10700e+00       1.12523e-05       3.66628e-06       8.31866e-15       2.38028e-08       4.89479e-01       5.48862e-01       4.89479e-01      
 1.11600e+00       1.13908e-05       3.76817e-06       8.32371e-15       2.43258e-08       4.89479e-01       5.56785e-01       4.89479e-01      
 1.12500e+00       1.15281e-05       3.87130e-06       8.32866e-15       2.48558e-08       4.89479e-01       5.64724e-01       4.89479e-01      
 1.13400e+00       1.16641e-05       3.97567e-06       8.33352e-15       2.53928e-08       4.89479e-01       5.72680e-01       4.89479e-01      
 1.14300e+00       1.17987e-05       4.08125e-06       8.33828e-15       2.59371e-08       4.89479e-01       5.80654e-01       4.89479e-01      
 1.15200e+00       1.19321e-05       4.18803e-06       8.34296e-15       2.64887e-08       4.89479e-01       5.88644e-01       4.89479e-01      
 1.16100e+00       1.20642e-05       4.29602e-06       8.34755e-15       2.70478e-08       4.89479e-01       5.96651e-01       4.89479e-01      
 1.17000e+00       1.21949e-05       4.40518e-06       8.35207e-15       2.76146e-08       4.89479e-01       6.04676e-01       4.89479e-01      
 1.17900e+00       1.23243e-05       4.51552e-06       8.35650e-15       2.81892e-08       4.89479e-01       6.12718e-01       4.89479e-01      
 1.18800e+00       1.24524e-05       4.62701e-06       8.36085e-15       2.87718e-08       4.89479e-01       6.20776e-01       4.89479e-01      
 1.19700e+00       1.25790e-05       4.73965e-06       8.36514e-15       2.93626e-08       4.89479e-01       6.28853e-01       4.89479e-01      
 1.20600e+00       1.27043e-05       4.85343e-06       8.36935e-15       2.99617e-08       4.89479e-01       6.36946e-01       4.89479e-01      
 1.21500e+00       1.28282e-05       4.96832e-06       8.37349e-15       3.05694e-08       4.89479e-01       6.45057e-01       4.89479e-01      
