
dc (V)            getData("M0:gm    getData("M0:id    getData("M0:cg    getData("M0:gd    getData("M0:vt    getData("M0:vd    getData("M0:vt

 0.00000e+00       4.46139e-12       1.57143e-13       8.75621e-16       1.35337e-14       4.97857e-01       4.17725e-02       4.97857e-01      
 9.00000e-03       5.96527e-12       2.02868e-13       8.72490e-16       1.80978e-14       4.97857e-01       4.17725e-02       4.97857e-01      
 1.80000e-02       7.97570e-12       2.64400e-13       8.69479e-16       2.42001e-14       4.97857e-01       4.17725e-02       4.97857e-01      
 2.70000e-02       1.06630e-11       3.47023e-13       8.66594e-16       3.23588e-14       4.97857e-01       4.17726e-02       4.97857e-01      
 3.60000e-02       1.42549e-11       4.57798e-13       8.63843e-16       4.32662e-14       4.97857e-01       4.17727e-02       4.97857e-01      
 4.50000e-02       1.90551e-11       6.06164e-13       8.61234e-16       5.78470e-14       4.97857e-01       4.17727e-02       4.97857e-01      
 5.40000e-02       2.54695e-11       8.04734e-13       8.58781e-16       7.73369e-14       4.97857e-01       4.17729e-02       4.97857e-01      
 6.30000e-02       3.40394e-11       1.07036e-12       8.56501e-16       1.03386e-13       4.97857e-01       4.17730e-02       4.97857e-01      
 7.20000e-02       4.54871e-11       1.42553e-12       8.54412e-16       1.38197e-13       4.97857e-01       4.17732e-02       4.97857e-01      
 8.10000e-02       6.07758e-11       1.90029e-12       8.52540e-16       1.84712e-13       4.97857e-01       4.17735e-02       4.97857e-01      
 9.00000e-02       8.11893e-11       2.53472e-12       8.50915e-16       2.46855e-13       4.97857e-01       4.17738e-02       4.97857e-01      
 9.90000e-02       1.08438e-10       3.38229e-12       8.49576e-16       3.29861e-13       4.97857e-01       4.17743e-02       4.97857e-01      
 1.08000e-01       1.44797e-10       4.51430e-12       8.48567e-16       4.40709e-13       4.97857e-01       4.17750e-02       4.97857e-01      
 1.17000e-01       1.93294e-10       6.02578e-12       8.47945e-16       5.88699e-13       4.97857e-01       4.17758e-02       4.97857e-01      
 1.26000e-01       2.57941e-10       8.04322e-12       8.47746e-16       7.86214e-13       4.97857e-01       4.17770e-02       4.97857e-01      
 1.35000e-01       3.44066e-10       1.07349e-11       8.48065e-16       1.04972e-12       4.97857e-01       4.17785e-02       4.97857e-01      
 1.44000e-01       4.58736e-10       1.43245e-11       8.49010e-16       1.40109e-12       4.97857e-01       4.17805e-02       4.97857e-01      
 1.53000e-01       6.11296e-10       1.91092e-11       8.50692e-16       1.86941e-12       4.97857e-01       4.17832e-02       4.97857e-01      
 1.62000e-01       8.14085e-10       2.54832e-11       8.53239e-16       2.49320e-12       4.97857e-01       4.17868e-02       4.97857e-01      
 1.71000e-01       1.08336e-09       3.39685e-11       8.56800e-16       3.32349e-12       4.97857e-01       4.17916e-02       4.97857e-01      
 1.80000e-01       1.44047e-09       4.52557e-11       8.61545e-16       4.42770e-12       4.97857e-01       4.17980e-02       4.97857e-01      
 1.89000e-01       1.91341e-09       6.02559e-11       8.67662e-16       5.89475e-12       4.97857e-01       4.18065e-02       4.97857e-01      
 1.98000e-01       2.53870e-09       8.01694e-11       8.75362e-16       7.84161e-12       4.97857e-01       4.18178e-02       4.97857e-01      
 2.07000e-01       3.36383e-09       1.06572e-10       8.84873e-16       1.04217e-11       4.97857e-01       4.18327e-02       4.97857e-01      
 2.16000e-01       4.45023e-09       1.41529e-10       8.96439e-16       1.38354e-11       4.97857e-01       4.18525e-02       4.97857e-01      
 2.25000e-01       5.87691e-09       1.87733e-10       9.10314e-16       1.83437e-11       4.97857e-01       4.18786e-02       4.97857e-01      
 2.34000e-01       7.74488e-09       2.48685e-10       9.26753e-16       2.42844e-11       4.97857e-01       4.19129e-02       4.97857e-01      
 2.43000e-01       1.01823e-08       3.28913e-10       9.46010e-16       3.20923e-11       4.97857e-01       4.19581e-02       4.97857e-01      
 2.52000e-01       1.33502e-08       4.34241e-10       9.68323e-16       4.23235e-11       4.97857e-01       4.20173e-02       4.97857e-01      
 2.61000e-01       1.74494e-08       5.72120e-10       9.93909e-16       5.56830e-11       4.97857e-01       4.20945e-02       4.97857e-01      
 2.70000e-01       2.27270e-08       7.52010e-10       1.02295e-15       7.30568e-11       4.97857e-01       4.21949e-02       4.97857e-01      
 2.79000e-01       2.94838e-08       9.85833e-10       1.05559e-15       9.55449e-11       4.97857e-01       4.23248e-02       4.97857e-01      
 2.88000e-01       3.80804e-08       1.28848e-09       1.09192e-15       1.24497e-10       4.97857e-01       4.24920e-02       4.97857e-01      
 2.97000e-01       4.89427e-08       1.67839e-09       1.13198e-15       1.61542e-10       4.97857e-01       4.27057e-02       4.97857e-01      
 3.06000e-01       6.25653e-08       2.17814e-09       1.17575e-15       2.08614e-10       4.97857e-01       4.29771e-02       4.97857e-01      
 3.15000e-01       7.95114e-08       2.81506e-09       1.22314e-15       2.67964e-10       4.97857e-01       4.33188e-02       4.97857e-01      
 3.24000e-01       1.00409e-07       3.62187e-09       1.27400e-15       3.42148e-10       4.97857e-01       4.37453e-02       4.97857e-01      
 3.33000e-01       1.25944e-07       4.63718e-09       1.32813e-15       4.33998e-10       4.97857e-01       4.42725e-02       4.97857e-01      
 3.42000e-01       1.56844e-07       5.90601e-09       1.38525e-15       5.46556e-10       4.97857e-01       4.49172e-02       4.97857e-01      
 3.51000e-01       1.93859e-07       7.48002e-09       1.44506e-15       6.82982e-10       4.97857e-01       4.56967e-02       4.97857e-01      
 3.60000e-01       2.37739e-07       9.41766e-09       1.50719e-15       8.46438e-10       4.97857e-01       4.66279e-02       4.97857e-01      
 3.69000e-01       2.89208e-07       1.17840e-08       1.57125e-15       1.03995e-09       4.97857e-01       4.77266e-02       4.97857e-01      
 3.78000e-01       3.48934e-07       1.46505e-08       1.63680e-15       1.26629e-09       4.97857e-01       4.90067e-02       4.97857e-01      
 3.87000e-01       4.17516e-07       1.80942e-08       1.70341e-15       1.52784e-09       4.97857e-01       5.04797e-02       4.97857e-01      
 3.96000e-01       4.95472e-07       2.21972e-08       1.77064e-15       1.82653e-09       4.97857e-01       5.21538e-02       4.97857e-01      
 4.05000e-01       5.83243e-07       2.70460e-08       1.83805e-15       2.16381e-09       4.97857e-01       5.40346e-02       4.97857e-01      
 4.14000e-01       6.81220e-07       3.27307e-08       1.90521e-15       2.54067e-09       4.97857e-01       5.61245e-02       4.97857e-01      
 4.23000e-01       7.89767e-07       3.93447e-08       1.97172e-15       2.95767e-09       4.97857e-01       5.84234e-02       4.97857e-01      
 4.32000e-01       9.09260e-07       4.69851e-08       2.03721e-15       3.41507e-09       4.97857e-01       6.09297e-02       4.97857e-01      
 4.41000e-01       1.04011e-06       5.57520e-08       2.10136e-15       3.91290e-09       4.97857e-01       6.36400e-02       4.97857e-01      
 4.50000e-01       1.18280e-06       6.57499e-08       2.16386e-15       4.45108e-09       4.97857e-01       6.65507e-02       4.97857e-01      
 4.59000e-01       1.33784e-06       7.70875e-08       2.22446e-15       5.02947e-09       4.97857e-01       6.96577e-02       4.97857e-01      
 4.68000e-01       1.50582e-06       8.98787e-08       2.28297e-15       5.64797e-09       4.97857e-01       7.29570e-02       4.97857e-01      
 4.77000e-01       1.68732e-06       1.04242e-07       2.33922e-15       6.30651e-09       4.97857e-01       7.64450e-02       4.97857e-01      
 4.86000e-01       1.88293e-06       1.20303e-07       2.39309e-15       7.00510e-09       4.97857e-01       8.01182e-02       4.97857e-01      
 4.95000e-01       2.09318e-06       1.38191e-07       2.44449e-15       7.74379e-09       4.97857e-01       8.39737e-02       4.97857e-01      
 5.04000e-01       2.31850e-06       1.58038e-07       2.49338e-15       8.52267e-09       4.97857e-01       8.80084e-02       4.97857e-01      
 5.13000e-01       2.55924e-06       1.79983e-07       2.53975e-15       9.34186e-09       4.97857e-01       9.22194e-02       4.97857e-01      
 5.22000e-01       2.81558e-06       2.04165e-07       2.58360e-15       1.02014e-08       4.97857e-01       9.66038e-02       4.97857e-01      
 5.31000e-01       3.08757e-06       2.30725e-07       2.62499e-15       1.11015e-08       4.97857e-01       1.01158e-01       4.97857e-01      
 5.40000e-01       3.37507e-06       2.59804e-07       2.66395e-15       1.20419e-08       4.97857e-01       1.05879e-01       4.97857e-01      
 5.49000e-01       3.67782e-06       2.91539e-07       2.70058e-15       1.30227e-08       4.97857e-01       1.10762e-01       4.97857e-01      
 5.58000e-01       3.99539e-06       3.26066e-07       2.73495e-15       1.40437e-08       4.97857e-01       1.15803e-01       4.97857e-01      
 5.67000e-01       4.32720e-06       3.63516e-07       2.76716e-15       1.51046e-08       4.97857e-01       1.20998e-01       4.97857e-01      
 5.76000e-01       4.67256e-06       4.04014e-07       2.79730e-15       1.62050e-08       4.97857e-01       1.26340e-01       4.97857e-01      
 5.85000e-01       5.03069e-06       4.47679e-07       2.82550e-15       1.73446e-08       4.97857e-01       1.31824e-01       4.97857e-01      
 5.94000e-01       5.40072e-06       4.94621e-07       2.85185e-15       1.85227e-08       4.97857e-01       1.37444e-01       4.97857e-01      
 6.03000e-01       5.78171e-06       5.44944e-07       2.87646e-15       1.97388e-08       4.97857e-01       1.43194e-01       4.97857e-01      
 6.12000e-01       6.17269e-06       5.98742e-07       2.89944e-15       2.09921e-08       4.97857e-01       1.49068e-01       4.97857e-01      
 6.21000e-01       6.57270e-06       6.56099e-07       2.92089e-15       2.22821e-08       4.97857e-01       1.55058e-01       4.97857e-01      
 6.30000e-01       6.98073e-06       7.17094e-07       2.94091e-15       2.36080e-08       4.97857e-01       1.61159e-01       4.97857e-01      
 6.39000e-01       7.39584e-06       7.81793e-07       2.95960e-15       2.49689e-08       4.97857e-01       1.67365e-01       4.97857e-01      
 6.48000e-01       7.81708e-06       8.50256e-07       2.97706e-15       2.63642e-08       4.97857e-01       1.73667e-01       4.97857e-01      
 6.57000e-01       8.24355e-06       9.22535e-07       2.99337e-15       2.77930e-08       4.97857e-01       1.80061e-01       4.97857e-01      
 6.66000e-01       8.67441e-06       9.98672e-07       3.00862e-15       2.92546e-08       4.97857e-01       1.86541e-01       4.97857e-01      
 6.75000e-01       9.10886e-06       1.07870e-06       3.02288e-15       3.07481e-08       4.97857e-01       1.93100e-01       4.97857e-01      
 6.84000e-01       9.54617e-06       1.16266e-06       3.03622e-15       3.22730e-08       4.97857e-01       1.99733e-01       4.97857e-01      
 6.93000e-01       9.98565e-06       1.25056e-06       3.04872e-15       3.38284e-08       4.97857e-01       2.06435e-01       4.97857e-01      
 7.02000e-01       1.04267e-05       1.34242e-06       3.06044e-15       3.54136e-08       4.97857e-01       2.13201e-01       4.97857e-01      
 7.11000e-01       1.08687e-05       1.43826e-06       3.07144e-15       3.70281e-08       4.97857e-01       2.20026e-01       4.97857e-01      
 7.20000e-01       1.13112e-05       1.53807e-06       3.08177e-15       3.86713e-08       4.97857e-01       2.26905e-01       4.97857e-01      
 7.29000e-01       1.17537e-05       1.64187e-06       3.09149e-15       4.03425e-08       4.97857e-01       2.33835e-01       4.97857e-01      
 7.38000e-01       1.21959e-05       1.74965e-06       3.10064e-15       4.20413e-08       4.97857e-01       2.40812e-01       4.97857e-01      
 7.47000e-01       1.26373e-05       1.86141e-06       3.10926e-15       4.37671e-08       4.97857e-01       2.47832e-01       4.97857e-01      
 7.56000e-01       1.30776e-05       1.97713e-06       3.11740e-15       4.55195e-08       4.97857e-01       2.54892e-01       4.97857e-01      
 7.65000e-01       1.35166e-05       2.09681e-06       3.12510e-15       4.72982e-08       4.97857e-01       2.61989e-01       4.97857e-01      
 7.74000e-01       1.39541e-05       2.22043e-06       3.13238e-15       4.91027e-08       4.97857e-01       2.69120e-01       4.97857e-01      
 7.83000e-01       1.43897e-05       2.34798e-06       3.13927e-15       5.09327e-08       4.97857e-01       2.76283e-01       4.97857e-01      
 7.92000e-01       1.48233e-05       2.47945e-06       3.14582e-15       5.27880e-08       4.97857e-01       2.83474e-01       4.97857e-01      
 8.01000e-01       1.52548e-05       2.61480e-06       3.15203e-15       5.46683e-08       4.97857e-01       2.90693e-01       4.97857e-01      
 8.10000e-01       1.56839e-05       2.75403e-06       3.15795e-15       5.65734e-08       4.97857e-01       2.97937e-01       4.97857e-01      
 8.19000e-01       1.61107e-05       2.89711e-06       3.16358e-15       5.85031e-08       4.97857e-01       3.05204e-01       4.97857e-01      
 8.28000e-01       1.65349e-05       3.04401e-06       3.16896e-15       6.04573e-08       4.97857e-01       3.12493e-01       4.97857e-01      
 8.37000e-01       1.69565e-05       3.19473e-06       3.17409e-15       6.24358e-08       4.97857e-01       3.19803e-01       4.97857e-01      
 8.46000e-01       1.73753e-05       3.34922e-06       3.17900e-15       6.44385e-08       4.97857e-01       3.27131e-01       4.97857e-01      
 8.55000e-01       1.77914e-05       3.50747e-06       3.18370e-15       6.64655e-08       4.97857e-01       3.34477e-01       4.97857e-01      
 8.64000e-01       1.82047e-05       3.66945e-06       3.18820e-15       6.85167e-08       4.97857e-01       3.41840e-01       4.97857e-01      
 8.73000e-01       1.86150e-05       3.83514e-06       3.19253e-15       7.05920e-08       4.97857e-01       3.49219e-01       4.97857e-01      
 8.82000e-01       1.90224e-05       4.00451e-06       3.19668e-15       7.26915e-08       4.97857e-01       3.56612e-01       4.97857e-01      
 8.91000e-01       1.94268e-05       4.17753e-06       3.20068e-15       7.48152e-08       4.97857e-01       3.64020e-01       4.97857e-01      
 9.00000e-01       1.98281e-05       4.35418e-06       3.20454e-15       7.69633e-08       4.97857e-01       3.71441e-01       4.97857e-01      
 9.09000e-01       2.02264e-05       4.53442e-06       3.20825e-15       7.91357e-08       4.97857e-01       3.78874e-01       4.97857e-01      
 9.18000e-01       2.06215e-05       4.71824e-06       3.21184e-15       8.13326e-08       4.97857e-01       3.86320e-01       4.97857e-01      
 9.27000e-01       2.10135e-05       4.90559e-06       3.21530e-15       8.35542e-08       4.97857e-01       3.93778e-01       4.97857e-01      
 9.36000e-01       2.14023e-05       5.09646e-06       3.21866e-15       8.58005e-08       4.97857e-01       4.01247e-01       4.97857e-01      
 9.45000e-01       2.17879e-05       5.29081e-06       3.22190e-15       8.80718e-08       4.97857e-01       4.08727e-01       4.97857e-01      
 9.54000e-01       2.21703e-05       5.48862e-06       3.22505e-15       9.03682e-08       4.97857e-01       4.16217e-01       4.97857e-01      
 9.63000e-01       2.25493e-05       5.68986e-06       3.22810e-15       9.26899e-08       4.97857e-01       4.23718e-01       4.97857e-01      
 9.72000e-01       2.29251e-05       5.89449e-06       3.23106e-15       9.50373e-08       4.97857e-01       4.31229e-01       4.97857e-01      
 9.81000e-01       2.32975e-05       6.10249e-06       3.23394e-15       9.74104e-08       4.97857e-01       4.38750e-01       4.97857e-01      
 9.90000e-01       2.36665e-05       6.31382e-06       3.23674e-15       9.98096e-08       4.97857e-01       4.46280e-01       4.97857e-01      
 9.99000e-01       2.40322e-05       6.52846e-06       3.23946e-15       1.02235e-07       4.97857e-01       4.53820e-01       4.97857e-01      
 1.00800e+00       2.43944e-05       6.74638e-06       3.24212e-15       1.04687e-07       4.97857e-01       4.61369e-01       4.97857e-01      
 1.01700e+00       2.47532e-05       6.96754e-06       3.24470e-15       1.07167e-07       4.97857e-01       4.68928e-01       4.97857e-01      
 1.02600e+00       2.51086e-05       7.19191e-06       3.24722e-15       1.09673e-07       4.97857e-01       4.76496e-01       4.97857e-01      
 1.03500e+00       2.54604e-05       7.41947e-06       3.24968e-15       1.12207e-07       4.97857e-01       4.84072e-01       4.97857e-01      
 1.04400e+00       2.58087e-05       7.65018e-06       3.25208e-15       1.14769e-07       4.97857e-01       4.91658e-01       4.97857e-01      
 1.05300e+00       2.61535e-05       7.88400e-06       3.25443e-15       1.17359e-07       4.97857e-01       4.99254e-01       4.97857e-01      
 1.06200e+00       2.64946e-05       8.12091e-06       3.25673e-15       1.19979e-07       4.97857e-01       5.06858e-01       4.97857e-01      
 1.07100e+00       2.68322e-05       8.36088e-06       3.25897e-15       1.22627e-07       4.97857e-01       5.14471e-01       4.97857e-01      
 1.08000e+00       2.71662e-05       8.60387e-06       3.26117e-15       1.25305e-07       4.97857e-01       5.22093e-01       4.97857e-01      
 1.08900e+00       2.74965e-05       8.84985e-06       3.26332e-15       1.28013e-07       4.97857e-01       5.29725e-01       4.97857e-01      
 1.09800e+00       2.78231e-05       9.09878e-06       3.26543e-15       1.30752e-07       4.97857e-01       5.37366e-01       4.97857e-01      
 1.10700e+00       2.81460e-05       9.35064e-06       3.26749e-15       1.33521e-07       4.97857e-01       5.45015e-01       4.97857e-01      
 1.11600e+00       2.84653e-05       9.60539e-06       3.26952e-15       1.36323e-07       4.97857e-01       5.52675e-01       4.97857e-01      
 1.12500e+00       2.87807e-05       9.86299e-06       3.27150e-15       1.39156e-07       4.97857e-01       5.60343e-01       4.97857e-01      
 1.13400e+00       2.90924e-05       1.01234e-05       3.27345e-15       1.42022e-07       4.97857e-01       5.68021e-01       4.97857e-01      
 1.14300e+00       2.94004e-05       1.03866e-05       3.27537e-15       1.44921e-07       4.97857e-01       5.75709e-01       4.97857e-01      
 1.15200e+00       2.97045e-05       1.06526e-05       3.27725e-15       1.47854e-07       4.97857e-01       5.83406e-01       4.97857e-01      
 1.16100e+00       3.00048e-05       1.09213e-05       3.27909e-15       1.50821e-07       4.97857e-01       5.91113e-01       4.97857e-01      
 1.17000e+00       3.03013e-05       1.11927e-05       3.28091e-15       1.53824e-07       4.97857e-01       5.98830e-01       4.97857e-01      
 1.17900e+00       3.05940e-05       1.14667e-05       3.28269e-15       1.56862e-07       4.97857e-01       6.06556e-01       4.97857e-01      
 1.18800e+00       3.08828e-05       1.17433e-05       3.28445e-15       1.59937e-07       4.97857e-01       6.14293e-01       4.97857e-01      
 1.19700e+00       3.11676e-05       1.20226e-05       3.28617e-15       1.63048e-07       4.97857e-01       6.22040e-01       4.97857e-01      
 1.20600e+00       3.14487e-05       1.23043e-05       3.28787e-15       1.66198e-07       4.97857e-01       6.29797e-01       4.97857e-01      
 1.21500e+00       3.17258e-05       1.25886e-05       3.28955e-15       1.69386e-07       4.97857e-01       6.37564e-01       4.97857e-01      
