
dc (V)            getData("M0:gm    getData("M0:id    getData("M0:cg    getData("M0:gd    getData("M0:vt    getData("M0:vd    getData("M0:vt

 0.00000e+00       1.36719e-12       6.09026e-14       2.59444e-15       1.51927e-15       4.88037e-01       3.96742e-02       4.88037e-01      
 9.00000e-03       1.83272e-12       7.43161e-14       2.58399e-15       2.03683e-15       4.88037e-01       3.96743e-02       4.88037e-01      
 1.80000e-02       2.45663e-12       9.26956e-14       2.57398e-15       2.73060e-15       4.88037e-01       3.96743e-02       4.88037e-01      
 2.70000e-02       3.29271e-12       1.17688e-13       2.56443e-15       3.66052e-15       4.88037e-01       3.96744e-02       4.88037e-01      
 3.60000e-02       4.41300e-12       1.51505e-13       2.55538e-15       4.90687e-15       4.88037e-01       3.96744e-02       4.88037e-01      
 4.50000e-02       5.91391e-12       1.97110e-13       2.54686e-15       6.57719e-15       4.88037e-01       3.96745e-02       4.88037e-01      
 5.40000e-02       7.92445e-12       2.58476e-13       2.53894e-15       8.81546e-15       4.88037e-01       3.96747e-02       4.88037e-01      
 6.30000e-02       1.06172e-11       3.40925e-13       2.53167e-15       1.18145e-14       4.88037e-01       3.96749e-02       4.88037e-01      
 7.20000e-02       1.42229e-11       4.51581e-13       2.52513e-15       1.58322e-14       4.88037e-01       3.96751e-02       4.88037e-01      
 8.10000e-02       1.90499e-11       5.99981e-13       2.51943e-15       2.12139e-14       4.88037e-01       3.96754e-02       4.88037e-01      
 9.00000e-02       2.55101e-11       7.98881e-13       2.51469e-15       2.84213e-14       4.88037e-01       3.96758e-02       4.88037e-01      
 9.90000e-02       3.41531e-11       1.06534e-12       2.51106e-15       3.80714e-14       4.88037e-01       3.96764e-02       4.88037e-01      
 1.08000e-01       4.57121e-11       1.42214e-12       2.50872e-15       5.09889e-14       4.88037e-01       3.96772e-02       4.88037e-01      
 1.17000e-01       6.11636e-11       1.89973e-12       2.50790e-15       6.82749e-14       4.88037e-01       3.96782e-02       4.88037e-01      
 1.26000e-01       8.18048e-11       2.53872e-12       2.50878e-15       9.13982e-14       4.88037e-01       3.96796e-02       4.88037e-01      
 1.35000e-01       1.09359e-10       3.39321e-12       2.51167e-15       1.22315e-13       4.88037e-01       3.96815e-02       4.88037e-01      
 1.44000e-01       1.46116e-10       4.53528e-12       2.51701e-15       1.63631e-13       4.88037e-01       3.96839e-02       4.88037e-01      
 1.53000e-01       1.95107e-10       6.06080e-12       2.52524e-15       2.18810e-13       4.88037e-01       3.96872e-02       4.88037e-01      
 1.62000e-01       2.60336e-10       8.09710e-12       2.53686e-15       2.92452e-13       4.88037e-01       3.96916e-02       4.88037e-01      
 1.71000e-01       3.47078e-10       1.08130e-11       2.55242e-15       3.90651e-13       4.88037e-01       3.96975e-02       4.88037e-01      
 1.80000e-01       4.62266e-10       1.44321e-11       2.57257e-15       5.21469e-13       4.88037e-01       3.97053e-02       4.88037e-01      
 1.89000e-01       6.14976e-10       1.92495e-11       2.59802e-15       6.95538e-13       4.88037e-01       3.97158e-02       4.88037e-01      
 1.98000e-01       8.17042e-10       2.56540e-11       2.62955e-15       9.26844e-13       4.88037e-01       3.97296e-02       4.88037e-01      
 2.07000e-01       1.08382e-09       3.41562e-11       2.66798e-15       1.23371e-12       4.88037e-01       3.97479e-02       4.88037e-01      
 2.16000e-01       1.43513e-09       4.54241e-11       2.71418e-15       1.64007e-12       4.88037e-01       3.97722e-02       4.88037e-01      
 2.25000e-01       1.89640e-09       6.03287e-11       2.76902e-15       2.17699e-12       4.88037e-01       3.98043e-02       4.88037e-01      
 2.34000e-01       2.49996e-09       7.99998e-11       2.83338e-15       2.88459e-12       4.88037e-01       3.98466e-02       4.88037e-01      
 2.43000e-01       3.28666e-09       1.05895e-10       2.90807e-15       3.81434e-12       4.88037e-01       3.99021e-02       4.88037e-01      
 2.52000e-01       4.30759e-09       1.39886e-10       2.99385e-15       5.03171e-12       4.88037e-01       3.99748e-02       4.88037e-01      
 2.61000e-01       5.62593e-09       1.84356e-10       3.09135e-15       6.61924e-12       4.88037e-01       4.00695e-02       4.88037e-01      
 2.70000e-01       7.31894e-09       2.42318e-10       3.20106e-15       8.67985e-12       4.88037e-01       4.01923e-02       4.88037e-01      
 2.79000e-01       9.47985e-09       3.17555e-10       3.32330e-15       1.13402e-11       4.88037e-01       4.03506e-02       4.88037e-01      
 2.88000e-01       1.22195e-08       4.14762e-10       3.45821e-15       1.47542e-11       4.88037e-01       4.05535e-02       4.88037e-01      
 2.97000e-01       1.56677e-08       5.39722e-10       3.60571e-15       1.91050e-11       4.88037e-01       4.08115e-02       4.88037e-01      
 3.06000e-01       1.99735e-08       6.99470e-10       3.76552e-15       2.46074e-11       4.88037e-01       4.11370e-02       4.88037e-01      
 3.15000e-01       2.53055e-08       9.02472e-10       3.93711e-15       3.15069e-11       4.88037e-01       4.15439e-02       4.88037e-01      
 3.24000e-01       3.18495e-08       1.15879e-09       4.11977e-15       4.00779e-11       4.88037e-01       4.20475e-02       4.88037e-01      
 3.33000e-01       3.98064e-08       1.48024e-09       4.31258e-15       5.06181e-11       4.88037e-01       4.26641e-02       4.88037e-01      
 3.42000e-01       4.93870e-08       1.88047e-09       4.51445e-15       6.34410e-11       4.88037e-01       4.34102e-02       4.88037e-01      
 3.51000e-01       6.08064e-08       2.37509e-09       4.72413e-15       7.88653e-11       4.88037e-01       4.43020e-02       4.88037e-01      
 3.60000e-01       7.42765e-08       2.98159e-09       4.94024e-15       9.72032e-11       4.88037e-01       4.53547e-02       4.88037e-01      
 3.69000e-01       8.99996e-08       3.71936e-09       5.16133e-15       1.18748e-10       4.88037e-01       4.65816e-02       4.88037e-01      
 3.78000e-01       1.08162e-07       4.60954e-09       5.38588e-15       1.43763e-10       4.88037e-01       4.79934e-02       4.88037e-01      
 3.87000e-01       1.28931e-07       5.67486e-09       5.61238e-15       1.72474e-10       4.88037e-01       4.95981e-02       4.88037e-01      
 3.96000e-01       1.52455e-07       6.93946e-09       5.83933e-15       2.05066e-10       4.88037e-01       5.14006e-02       4.88037e-01      
 4.05000e-01       1.78871e-07       8.42877e-09       6.06527e-15       2.41680e-10       4.88037e-01       5.34035e-02       4.88037e-01      
 4.14000e-01       2.08310e-07       1.01694e-08       6.28884e-15       2.82423e-10       4.88037e-01       5.56067e-02       4.88037e-01      
 4.23000e-01       2.40904e-07       1.21892e-08       6.50879e-15       3.27370e-10       4.88037e-01       5.80087e-02       4.88037e-01      
 4.32000e-01       2.76799e-07       1.45171e-08       6.72400e-15       3.76575e-10       4.88037e-01       6.06067e-02       4.88037e-01      
 4.41000e-01       3.16155e-07       1.71837e-08       6.93349e-15       4.30080e-10       4.88037e-01       6.33976e-02       4.88037e-01      
 4.50000e-01       3.59147e-07       2.02208e-08       7.13642e-15       4.87919e-10       4.88037e-01       6.63778e-02       4.88037e-01      
 4.59000e-01       4.05963e-07       2.36620e-08       7.33211e-15       5.50126e-10       4.88037e-01       6.95443e-02       4.88037e-01      
 4.68000e-01       4.56796e-07       2.75425e-08       7.52003e-15       6.16737e-10       4.88037e-01       7.28939e-02       4.88037e-01      
 4.77000e-01       5.11832e-07       3.18995e-08       7.69980e-15       6.87791e-10       4.88037e-01       7.64242e-02       4.88037e-01      
 4.86000e-01       5.71244e-07       3.67715e-08       7.87115e-15       7.63329e-10       4.88037e-01       8.01326e-02       4.88037e-01      
 4.95000e-01       6.35178e-07       4.21985e-08       8.03395e-15       8.43392e-10       4.88037e-01       8.40168e-02       4.88037e-01      
 5.04000e-01       7.03748e-07       4.82219e-08       8.18818e-15       9.28019e-10       4.88037e-01       8.80746e-02       4.88037e-01      
 5.13000e-01       7.77027e-07       5.48836e-08       8.33390e-15       1.01724e-09       4.88037e-01       9.23035e-02       4.88037e-01      
 5.22000e-01       8.55044e-07       6.22263e-08       8.47125e-15       1.11110e-09       4.88037e-01       9.67008e-02       4.88037e-01      
 5.31000e-01       9.37783e-07       7.02926e-08       8.60045e-15       1.20959e-09       4.88037e-01       1.01263e-01       4.88037e-01      
 5.40000e-01       1.02518e-06       7.91246e-08       8.72177e-15       1.31274e-09       4.88037e-01       1.05987e-01       4.88037e-01      
 5.49000e-01       1.11712e-06       8.87638e-08       8.83550e-15       1.42053e-09       4.88037e-01       1.10869e-01       4.88037e-01      
 5.58000e-01       1.21347e-06       9.92505e-08       8.94197e-15       1.53295e-09       4.88037e-01       1.15904e-01       4.88037e-01      
 5.67000e-01       1.31402e-06       1.10624e-07       9.04155e-15       1.64997e-09       4.88037e-01       1.21088e-01       4.88037e-01      
 5.76000e-01       1.41858e-06       1.22920e-07       9.13459e-15       1.77156e-09       4.88037e-01       1.26414e-01       4.88037e-01      
 5.85000e-01       1.52690e-06       1.36174e-07       9.22147e-15       1.89767e-09       4.88037e-01       1.31878e-01       4.88037e-01      
 5.94000e-01       1.63871e-06       1.50420e-07       9.30255e-15       2.02824e-09       4.88037e-01       1.37474e-01       4.88037e-01      
 6.03000e-01       1.75377e-06       1.65686e-07       9.37820e-15       2.16320e-09       4.88037e-01       1.43196e-01       4.88037e-01      
 6.12000e-01       1.87177e-06       1.82001e-07       9.44877e-15       2.30249e-09       4.88037e-01       1.49037e-01       4.88037e-01      
 6.21000e-01       1.99246e-06       1.99391e-07       9.51460e-15       2.44603e-09       4.88037e-01       1.54992e-01       4.88037e-01      
 6.30000e-01       2.11556e-06       2.17878e-07       9.57603e-15       2.59374e-09       4.88037e-01       1.61054e-01       4.88037e-01      
 6.39000e-01       2.24080e-06       2.37483e-07       9.63336e-15       2.74555e-09       4.88037e-01       1.67217e-01       4.88037e-01      
 6.48000e-01       2.36793e-06       2.58224e-07       9.68689e-15       2.90138e-09       4.88037e-01       1.73477e-01       4.88037e-01      
 6.57000e-01       2.49671e-06       2.80116e-07       9.73691e-15       3.06115e-09       4.88037e-01       1.79826e-01       4.88037e-01      
 6.66000e-01       2.62691e-06       3.03174e-07       9.78366e-15       3.22478e-09       4.88037e-01       1.86260e-01       4.88037e-01      
 6.75000e-01       2.75832e-06       3.27409e-07       9.82740e-15       3.39220e-09       4.88037e-01       1.92773e-01       4.88037e-01      
 6.84000e-01       2.89074e-06       3.52831e-07       9.86836e-15       3.56333e-09       4.88037e-01       1.99360e-01       4.88037e-01      
 6.93000e-01       3.02400e-06       3.79449e-07       9.90675e-15       3.73811e-09       4.88037e-01       2.06017e-01       4.88037e-01      
 7.02000e-01       3.15793e-06       4.07269e-07       9.94276e-15       3.91648e-09       4.88037e-01       2.12740e-01       4.88037e-01      
 7.11000e-01       3.29238e-06       4.36297e-07       9.97659e-15       4.09838e-09       4.88037e-01       2.19523e-01       4.88037e-01      
 7.20000e-01       3.42722e-06       4.66537e-07       1.00084e-14       4.28374e-09       4.88037e-01       2.26364e-01       4.88037e-01      
 7.29000e-01       3.56233e-06       4.97992e-07       1.00383e-14       4.47253e-09       4.88037e-01       2.33258e-01       4.88037e-01      
 7.38000e-01       3.69761e-06       5.30663e-07       1.00665e-14       4.66470e-09       4.88037e-01       2.40202e-01       4.88037e-01      
 7.47000e-01       3.83296e-06       5.64552e-07       1.00932e-14       4.86019e-09       4.88037e-01       2.47194e-01       4.88037e-01      
 7.56000e-01       3.96830e-06       5.99659e-07       1.01183e-14       5.05899e-09       4.88037e-01       2.54230e-01       4.88037e-01      
 7.65000e-01       4.10354e-06       6.35984e-07       1.01421e-14       5.26105e-09       4.88037e-01       2.61307e-01       4.88037e-01      
 7.74000e-01       4.23863e-06       6.73525e-07       1.01647e-14       5.46635e-09       4.88037e-01       2.68424e-01       4.88037e-01      
 7.83000e-01       4.37351e-06       7.12280e-07       1.01861e-14       5.67486e-09       4.88037e-01       2.75578e-01       4.88037e-01      
 7.92000e-01       4.50813e-06       7.52249e-07       1.02064e-14       5.88658e-09       4.88037e-01       2.82768e-01       4.88037e-01      
 8.01000e-01       4.64243e-06       7.93427e-07       1.02258e-14       6.10147e-09       4.88037e-01       2.89990e-01       4.88037e-01      
 8.10000e-01       4.77639e-06       8.35812e-07       1.02442e-14       6.31954e-09       4.88037e-01       2.97244e-01       4.88037e-01      
 8.19000e-01       4.90996e-06       8.79401e-07       1.02618e-14       6.54077e-09       4.88037e-01       3.04528e-01       4.88037e-01      
 8.28000e-01       5.04310e-06       9.24191e-07       1.02785e-14       6.76516e-09       4.88037e-01       3.11841e-01       4.88037e-01      
 8.37000e-01       5.17580e-06       9.70176e-07       1.02946e-14       6.99272e-09       4.88037e-01       3.19182e-01       4.88037e-01      
 8.46000e-01       5.30803e-06       1.01735e-06       1.03099e-14       7.22344e-09       4.88037e-01       3.26548e-01       4.88037e-01      
 8.55000e-01       5.43976e-06       1.06572e-06       1.03247e-14       7.45733e-09       4.88037e-01       3.33940e-01       4.88037e-01      
 8.64000e-01       5.57096e-06       1.11527e-06       1.03388e-14       7.69440e-09       4.88037e-01       3.41357e-01       4.88037e-01      
 8.73000e-01       5.70163e-06       1.16599e-06       1.03524e-14       7.93467e-09       4.88037e-01       3.48797e-01       4.88037e-01      
 8.82000e-01       5.83173e-06       1.21789e-06       1.03654e-14       8.17815e-09       4.88037e-01       3.56260e-01       4.88037e-01      
 8.91000e-01       5.96126e-06       1.27096e-06       1.03780e-14       8.42486e-09       4.88037e-01       3.63745e-01       4.88037e-01      
 9.00000e-01       6.09019e-06       1.32519e-06       1.03902e-14       8.67481e-09       4.88037e-01       3.71251e-01       4.88037e-01      
 9.09000e-01       6.21850e-06       1.38058e-06       1.04019e-14       8.92804e-09       4.88037e-01       3.78779e-01       4.88037e-01      
 9.18000e-01       6.34619e-06       1.43712e-06       1.04132e-14       9.18458e-09       4.88037e-01       3.86327e-01       4.88037e-01      
 9.27000e-01       6.47324e-06       1.49481e-06       1.04241e-14       9.44444e-09       4.88037e-01       3.93895e-01       4.88037e-01      
 9.36000e-01       6.59962e-06       1.55363e-06       1.04347e-14       9.70766e-09       4.88037e-01       4.01483e-01       4.88037e-01      
 9.45000e-01       6.72533e-06       1.61360e-06       1.04450e-14       9.97428e-09       4.88037e-01       4.09091e-01       4.88037e-01      
 9.54000e-01       6.85034e-06       1.67469e-06       1.04549e-14       1.02443e-08       4.88037e-01       4.16718e-01       4.88037e-01      
 9.63000e-01       6.97466e-06       1.73690e-06       1.04646e-14       1.05179e-08       4.88037e-01       4.24363e-01       4.88037e-01      
 9.72000e-01       7.09825e-06       1.80022e-06       1.04740e-14       1.07949e-08       4.88037e-01       4.32027e-01       4.88037e-01      
 9.81000e-01       7.22111e-06       1.86466e-06       1.04831e-14       1.10755e-08       4.88037e-01       4.39710e-01       4.88037e-01      
 9.90000e-01       7.34321e-06       1.93020e-06       1.04920e-14       1.13597e-08       4.88037e-01       4.47411e-01       4.88037e-01      
 9.99000e-01       7.46456e-06       1.99683e-06       1.05006e-14       1.16475e-08       4.88037e-01       4.55130e-01       4.88037e-01      
 1.00800e+00       7.58512e-06       2.06455e-06       1.05090e-14       1.19391e-08       4.88037e-01       4.62867e-01       4.88037e-01      
 1.01700e+00       7.70489e-06       2.13336e-06       1.05172e-14       1.22344e-08       4.88037e-01       4.70622e-01       4.88037e-01      
 1.02600e+00       7.82385e-06       2.20324e-06       1.05252e-14       1.25335e-08       4.88037e-01       4.78395e-01       4.88037e-01      
 1.03500e+00       7.94199e-06       2.27418e-06       1.05330e-14       1.28365e-08       4.88037e-01       4.86185e-01       4.88037e-01      
 1.04400e+00       8.05929e-06       2.34619e-06       1.05406e-14       1.31434e-08       4.88037e-01       4.93994e-01       4.88037e-01      
 1.05300e+00       8.17574e-06       2.41924e-06       1.05481e-14       1.34543e-08       4.88037e-01       5.01820e-01       4.88037e-01      
 1.06200e+00       8.29132e-06       2.49334e-06       1.05553e-14       1.37693e-08       4.88037e-01       5.09664e-01       4.88037e-01      
 1.07100e+00       8.40602e-06       2.56848e-06       1.05624e-14       1.40884e-08       4.88037e-01       5.17525e-01       4.88037e-01      
 1.08000e+00       8.51982e-06       2.64464e-06       1.05694e-14       1.44118e-08       4.88037e-01       5.25404e-01       4.88037e-01      
 1.08900e+00       8.63272e-06       2.72183e-06       1.05762e-14       1.47394e-08       4.88037e-01       5.33301e-01       4.88037e-01      
 1.09800e+00       8.74470e-06       2.80003e-06       1.05829e-14       1.50713e-08       4.88037e-01       5.41216e-01       4.88037e-01      
 1.10700e+00       8.85573e-06       2.87923e-06       1.05894e-14       1.54077e-08       4.88037e-01       5.49148e-01       4.88037e-01      
 1.11600e+00       8.96582e-06       2.95942e-06       1.05958e-14       1.57487e-08       4.88037e-01       5.57098e-01       4.88037e-01      
 1.12500e+00       9.07495e-06       3.04061e-06       1.06021e-14       1.60942e-08       4.88037e-01       5.65066e-01       4.88037e-01      
 1.13400e+00       9.18310e-06       3.12277e-06       1.06083e-14       1.64445e-08       4.88037e-01       5.73052e-01       4.88037e-01      
 1.14300e+00       9.29026e-06       3.20590e-06       1.06143e-14       1.67995e-08       4.88037e-01       5.81055e-01       4.88037e-01      
 1.15200e+00       9.39643e-06       3.28998e-06       1.06203e-14       1.71595e-08       4.88037e-01       5.89077e-01       4.88037e-01      
 1.16100e+00       9.50158e-06       3.37502e-06       1.06261e-14       1.75245e-08       4.88037e-01       5.97116e-01       4.88037e-01      
 1.17000e+00       9.60570e-06       3.46101e-06       1.06318e-14       1.78946e-08       4.88037e-01       6.05174e-01       4.88037e-01      
 1.17900e+00       9.70879e-06       3.54792e-06       1.06374e-14       1.82699e-08       4.88037e-01       6.13250e-01       4.88037e-01      
 1.18800e+00       9.81084e-06       3.63576e-06       1.06429e-14       1.86505e-08       4.88037e-01       6.21344e-01       4.88037e-01      
 1.19700e+00       9.91182e-06       3.72451e-06       1.06484e-14       1.90366e-08       4.88037e-01       6.29456e-01       4.88037e-01      
 1.20600e+00       1.00117e-05       3.81417e-06       1.06537e-14       1.94284e-08       4.88037e-01       6.37587e-01       4.88037e-01      
 1.21500e+00       1.01106e-05       3.90472e-06       1.06590e-14       1.98258e-08       4.88037e-01       6.45736e-01       4.88037e-01      
