
dc (V)            getData("M0:gm    getData("M0:id    getData("M0:cg    getData("M0:gd    getData("M0:vt    getData("M0:vd    getData("M0:vt

 0.00000e+00       8.86133e-13       4.60903e-14       3.98701e-15       6.71841e-16       4.85998e-01       3.93190e-02       4.85998e-01      
 9.00000e-03       1.18835e-12       5.44730e-14       3.97066e-15       9.01089e-16       4.85998e-01       3.93190e-02       4.85998e-01      
 1.80000e-02       1.59356e-12       6.61139e-14       3.95500e-15       1.20851e-15       4.85998e-01       3.93190e-02       4.85998e-01      
 2.70000e-02       2.13678e-12       8.20812e-14       3.94009e-15       1.62075e-15       4.85998e-01       3.93191e-02       4.85998e-01      
 3.60000e-02       2.86494e-12       1.03810e-13       3.92596e-15       2.17348e-15       4.85998e-01       3.93192e-02       4.85998e-01      
 4.50000e-02       3.84089e-12       1.33228e-13       3.91271e-15       2.91454e-15       4.85998e-01       3.93193e-02       4.85998e-01      
 5.40000e-02       5.14874e-12       1.72919e-13       3.90039e-15       3.90798e-15       4.85998e-01       3.93194e-02       4.85998e-01      
 6.30000e-02       6.90103e-12       2.26347e-13       3.88914e-15       5.23960e-15       4.85998e-01       3.93196e-02       4.85998e-01      
 7.20000e-02       9.24832e-12       2.98152e-13       3.87907e-15       7.02426e-15       4.85998e-01       3.93199e-02       4.85998e-01      
 8.10000e-02       1.23918e-11       3.94549e-13       3.87035e-15       9.41571e-15       4.85998e-01       3.93202e-02       4.85998e-01      
 9.00000e-02       1.66005e-11       5.23853e-13       3.86318e-15       1.26196e-14       4.85998e-01       3.93206e-02       4.85998e-01      
 9.90000e-02       2.22332e-11       6.97190e-13       3.85781e-15       1.69111e-14       4.85998e-01       3.93212e-02       4.85998e-01      
 1.08000e-01       2.97687e-11       9.29428e-13       3.85454e-15       2.26577e-14       4.85998e-01       3.93221e-02       4.85998e-01      
 1.17000e-01       3.98452e-11       1.24043e-12       3.85371e-15       3.03504e-14       4.85998e-01       3.93231e-02       4.85998e-01      
 1.26000e-01       5.33103e-11       1.65672e-12       3.85567e-15       4.06445e-14       4.85998e-01       3.93246e-02       4.85998e-01      
 1.35000e-01       7.12901e-11       2.21361e-12       3.86088e-15       5.44128e-14       4.85998e-01       3.93265e-02       4.85998e-01      
 1.44000e-01       9.52816e-11       2.95819e-12       3.87008e-15       7.28179e-14       4.85998e-01       3.93291e-02       4.85998e-01      
 1.53000e-01       1.27265e-10       3.95308e-12       3.88395e-15       9.74060e-14       4.85998e-01       3.93326e-02       4.85998e-01      
 1.62000e-01       1.69858e-10       5.28147e-12       3.90331e-15       1.30230e-13       4.85998e-01       3.93372e-02       4.85998e-01      
 1.71000e-01       2.26508e-10       7.05369e-12       3.92906e-15       1.74011e-13       4.85998e-01       3.93433e-02       4.85998e-01      
 1.80000e-01       3.01744e-10       9.41579e-12       3.96223e-15       2.32347e-13       4.85998e-01       3.93515e-02       4.85998e-01      
 1.89000e-01       4.01495e-10       1.25606e-11       4.00397e-15       3.09984e-13       4.85998e-01       3.93624e-02       4.85998e-01      
 1.98000e-01       5.33485e-10       1.67421e-11       4.05550e-15       4.13163e-13       4.85998e-01       3.93769e-02       4.85998e-01      
 2.07000e-01       7.07735e-10       2.22938e-11       4.11816e-15       5.50061e-13       4.85998e-01       3.93962e-02       4.85998e-01      
 2.16000e-01       9.37167e-10       2.96518e-11       4.19330e-15       7.31347e-13       4.85998e-01       3.94216e-02       4.85998e-01      
 2.25000e-01       1.23833e-09       3.93845e-11       4.28231e-15       9.70868e-13       4.85998e-01       3.94553e-02       4.85998e-01      
 2.34000e-01       1.63229e-09       5.22289e-11       4.38654e-15       1.28649e-12       4.85998e-01       3.94996e-02       4.85998e-01      
 2.43000e-01       2.14557e-09       6.91353e-11       4.50727e-15       1.70113e-12       4.85998e-01       3.95577e-02       4.85998e-01      
 2.52000e-01       2.81132e-09       9.13219e-11       4.64565e-15       2.24386e-12       4.85998e-01       3.96338e-02       4.85998e-01      
 2.61000e-01       3.67049e-09       1.20339e-10       4.80263e-15       2.95135e-12       4.85998e-01       3.97329e-02       4.85998e-01      
 2.70000e-01       4.77302e-09       1.58147e-10       4.97894e-15       3.86921e-12       4.85998e-01       3.98613e-02       4.85998e-01      
 2.79000e-01       6.17908e-09       2.07199e-10       5.17502e-15       5.05349e-12       4.85998e-01       4.00267e-02       4.85998e-01      
 2.88000e-01       7.96008e-09       2.70540e-10       5.39102e-15       6.57209e-12       4.85998e-01       4.02383e-02       4.85998e-01      
 2.97000e-01       1.01994e-08       3.51913e-10       5.62674e-15       8.50583e-12       4.85998e-01       4.05072e-02       4.85998e-01      
 3.06000e-01       1.29927e-08       4.55866e-10       5.88166e-15       1.09490e-11       4.85998e-01       4.08458e-02       4.85998e-01      
 3.15000e-01       1.64478e-08       5.87863e-10       6.15490e-15       1.40095e-11       4.85998e-01       4.12684e-02       4.85998e-01      
 3.24000e-01       2.06834e-08       7.54388e-10       6.44525e-15       1.78072e-11       4.85998e-01       4.17903e-02       4.85998e-01      
 3.33000e-01       2.58272e-08       9.63039e-10       6.75121e-15       2.24722e-11       4.85998e-01       4.24279e-02       4.85998e-01      
 3.42000e-01       3.20131e-08       1.22259e-09       7.07099e-15       2.81411e-11       4.85998e-01       4.31974e-02       4.85998e-01      
 3.51000e-01       3.93770e-08       1.54304e-09       7.40258e-15       3.49530e-11       4.85998e-01       4.41151e-02       4.85998e-01      
 3.60000e-01       4.80527e-08       1.93560e-09       7.74379e-15       4.30437e-11       4.85998e-01       4.51953e-02       4.85998e-01      
 3.69000e-01       5.81670e-08       2.41265e-09       8.09230e-15       5.25413e-11       4.85998e-01       4.64510e-02       4.85998e-01      
 3.78000e-01       6.98368e-08       2.98768e-09       8.44571e-15       6.35618e-11       4.85998e-01       4.78920e-02       4.85998e-01      
 3.87000e-01       8.31673e-08       3.67517e-09       8.80163e-15       7.62051e-11       4.85998e-01       4.95257e-02       4.85998e-01      
 3.96000e-01       9.82531e-08       4.49052e-09       9.15772e-15       9.05546e-11       4.85998e-01       5.13565e-02       4.85998e-01      
 4.05000e-01       1.15181e-07       5.44991e-09       9.51173e-15       1.06676e-10       4.85998e-01       5.33862e-02       4.85998e-01      
 4.14000e-01       1.34037e-07       6.57032e-09       9.86153e-15       1.24622e-10       4.85998e-01       5.56145e-02       4.85998e-01      
 4.23000e-01       1.54909e-07       7.86950e-09       1.02052e-14       1.44430e-10       4.85998e-01       5.80395e-02       4.85998e-01      
 4.32000e-01       1.77893e-07       9.36600e-09       1.05411e-14       1.66132e-10       4.85998e-01       6.06585e-02       4.85998e-01      
 4.41000e-01       2.03096e-07       1.10793e-08       1.08676e-14       1.89753e-10       4.85998e-01       6.34683e-02       4.85998e-01      
 4.50000e-01       2.30631e-07       1.30299e-08       1.11835e-14       2.15317e-10       4.85998e-01       6.64655e-02       4.85998e-01      
 4.59000e-01       2.60623e-07       1.52394e-08       1.14878e-14       2.42845e-10       4.85998e-01       6.96470e-02       4.85998e-01      
 4.68000e-01       2.93194e-07       1.77304e-08       1.17798e-14       2.72360e-10       4.85998e-01       7.30102e-02       4.85998e-01      
 4.77000e-01       3.28463e-07       2.05266e-08       1.20588e-14       3.03887e-10       4.85998e-01       7.65524e-02       4.85998e-01      
 4.86000e-01       3.66539e-07       2.36529e-08       1.23245e-14       3.37448e-10       4.85998e-01       8.02715e-02       4.85998e-01      
 4.95000e-01       4.07513e-07       2.71350e-08       1.25767e-14       3.73068e-10       4.85998e-01       8.41652e-02       4.85998e-01      
 5.04000e-01       4.51452e-07       3.09991e-08       1.28155e-14       4.10767e-10       4.85998e-01       8.82313e-02       4.85998e-01      
 5.13000e-01       4.98400e-07       3.52723e-08       1.30409e-14       4.50564e-10       4.85998e-01       9.24674e-02       4.85998e-01      
 5.22000e-01       5.48372e-07       3.99817e-08       1.32533e-14       4.92472e-10       4.85998e-01       9.68707e-02       4.85998e-01      
 5.31000e-01       6.01350e-07       4.51545e-08       1.34530e-14       5.36503e-10       4.85998e-01       1.01438e-01       4.85998e-01      
 5.40000e-01       6.57291e-07       5.08175e-08       1.36403e-14       5.82661e-10       4.85998e-01       1.06166e-01       4.85998e-01      
 5.49000e-01       7.16121e-07       5.69972e-08       1.38159e-14       6.30944e-10       4.85998e-01       1.11050e-01       4.85998e-01      
 5.58000e-01       7.77744e-07       6.37190e-08       1.39802e-14       6.81346e-10       4.85998e-01       1.16087e-01       4.85998e-01      
 5.67000e-01       8.42038e-07       7.10075e-08       1.41338e-14       7.33854e-10       4.85998e-01       1.21270e-01       4.85998e-01      
 5.76000e-01       9.08865e-07       7.88863e-08       1.42773e-14       7.88453e-10       4.85998e-01       1.26595e-01       4.85998e-01      
 5.85000e-01       9.78073e-07       8.73774e-08       1.44112e-14       8.45119e-10       4.85998e-01       1.32057e-01       4.85998e-01      
 5.94000e-01       1.04950e-06       9.65015e-08       1.45362e-14       9.03827e-10       4.85998e-01       1.37649e-01       4.85998e-01      
 6.03000e-01       1.12296e-06       1.06278e-07       1.46528e-14       9.64548e-10       4.85998e-01       1.43365e-01       4.85998e-01      
 6.12000e-01       1.19830e-06       1.16724e-07       1.47615e-14       1.02725e-09       4.85998e-01       1.49200e-01       4.85998e-01      
 6.21000e-01       1.27534e-06       1.27856e-07       1.48630e-14       1.09190e-09       4.85998e-01       1.55148e-01       4.85998e-01      
 6.30000e-01       1.35391e-06       1.39688e-07       1.49576e-14       1.15846e-09       4.85998e-01       1.61202e-01       4.85998e-01      
 6.39000e-01       1.43383e-06       1.52233e-07       1.50460e-14       1.22691e-09       4.85998e-01       1.67357e-01       4.85998e-01      
 6.48000e-01       1.51496e-06       1.65504e-07       1.51284e-14       1.29719e-09       4.85998e-01       1.73606e-01       4.85998e-01      
 6.57000e-01       1.59713e-06       1.79509e-07       1.52055e-14       1.36928e-09       4.85998e-01       1.79945e-01       4.85998e-01      
 6.66000e-01       1.68022e-06       1.94258e-07       1.52776e-14       1.44314e-09       4.85998e-01       1.86367e-01       4.85998e-01      
 6.75000e-01       1.76408e-06       2.09758e-07       1.53450e-14       1.51874e-09       4.85998e-01       1.92869e-01       4.85998e-01      
 6.84000e-01       1.84860e-06       2.26016e-07       1.54081e-14       1.59605e-09       4.85998e-01       1.99444e-01       4.85998e-01      
 6.93000e-01       1.93367e-06       2.43037e-07       1.54673e-14       1.67503e-09       4.85998e-01       2.06089e-01       4.85998e-01      
 7.02000e-01       2.01918e-06       2.60826e-07       1.55228e-14       1.75567e-09       4.85998e-01       2.12798e-01       4.85998e-01      
 7.11000e-01       2.10504e-06       2.79386e-07       1.55750e-14       1.83792e-09       4.85998e-01       2.19569e-01       4.85998e-01      
 7.20000e-01       2.19117e-06       2.98720e-07       1.56240e-14       1.92177e-09       4.85998e-01       2.26397e-01       4.85998e-01      
 7.29000e-01       2.27750e-06       3.18830e-07       1.56702e-14       2.00720e-09       4.85998e-01       2.33279e-01       4.85998e-01      
 7.38000e-01       2.36395e-06       3.39717e-07       1.57138e-14       2.09418e-09       4.85998e-01       2.40211e-01       4.85998e-01      
 7.47000e-01       2.45048e-06       3.61383e-07       1.57549e-14       2.18271e-09       4.85998e-01       2.47190e-01       4.85998e-01      
 7.56000e-01       2.53703e-06       3.83828e-07       1.57937e-14       2.27275e-09       4.85998e-01       2.54215e-01       4.85998e-01      
 7.65000e-01       2.62355e-06       4.07051e-07       1.58305e-14       2.36430e-09       4.85998e-01       2.61281e-01       4.85998e-01      
 7.74000e-01       2.71000e-06       4.31053e-07       1.58654e-14       2.45734e-09       4.85998e-01       2.68387e-01       4.85998e-01      
 7.83000e-01       2.79635e-06       4.55832e-07       1.58984e-14       2.55188e-09       4.85998e-01       2.75532e-01       4.85998e-01      
 7.92000e-01       2.88257e-06       4.81388e-07       1.59299e-14       2.64789e-09       4.85998e-01       2.82712e-01       4.85998e-01      
 8.01000e-01       2.96861e-06       5.07719e-07       1.59598e-14       2.74537e-09       4.85998e-01       2.89925e-01       4.85998e-01      
 8.10000e-01       3.05447e-06       5.34823e-07       1.59882e-14       2.84433e-09       4.85998e-01       2.97172e-01       4.85998e-01      
 8.19000e-01       3.14011e-06       5.62699e-07       1.60154e-14       2.94475e-09       4.85998e-01       3.04449e-01       4.85998e-01      
 8.28000e-01       3.22552e-06       5.91345e-07       1.60414e-14       3.04663e-09       4.85998e-01       3.11756e-01       4.85998e-01      
 8.37000e-01       3.31068e-06       6.20758e-07       1.60662e-14       3.14999e-09       4.85998e-01       3.19091e-01       4.85998e-01      
 8.46000e-01       3.39557e-06       6.50936e-07       1.60900e-14       3.25481e-09       4.85998e-01       3.26453e-01       4.85998e-01      
 8.55000e-01       3.48018e-06       6.81877e-07       1.61128e-14       3.36111e-09       4.85998e-01       3.33842e-01       4.85998e-01      
 8.64000e-01       3.56448e-06       7.13578e-07       1.61347e-14       3.46889e-09       4.85998e-01       3.41256e-01       4.85998e-01      
 8.73000e-01       3.64848e-06       7.46036e-07       1.61557e-14       3.57815e-09       4.85998e-01       3.48695e-01       4.85998e-01      
 8.82000e-01       3.73215e-06       7.79249e-07       1.61760e-14       3.68891e-09       4.85998e-01       3.56158e-01       4.85998e-01      
 8.91000e-01       3.81548e-06       8.13213e-07       1.61955e-14       3.80117e-09       4.85998e-01       3.63644e-01       4.85998e-01      
 9.00000e-01       3.89847e-06       8.47925e-07       1.62143e-14       3.91495e-09       4.85998e-01       3.71153e-01       4.85998e-01      
 9.09000e-01       3.98109e-06       8.83383e-07       1.62325e-14       4.03025e-09       4.85998e-01       3.78684e-01       4.85998e-01      
 9.18000e-01       4.06335e-06       9.19582e-07       1.62500e-14       4.14709e-09       4.85998e-01       3.86236e-01       4.85998e-01      
 9.27000e-01       4.14523e-06       9.56520e-07       1.62670e-14       4.26549e-09       4.85998e-01       3.93810e-01       4.85998e-01      
 9.36000e-01       4.22671e-06       9.94194e-07       1.62834e-14       4.38546e-09       4.85998e-01       4.01405e-01       4.85998e-01      
 9.45000e-01       4.30780e-06       1.03260e-06       1.62993e-14       4.50702e-09       4.85998e-01       4.09020e-01       4.85998e-01      
 9.54000e-01       4.38848e-06       1.07173e-06       1.63148e-14       4.63019e-09       4.85998e-01       4.16656e-01       4.85998e-01      
 9.63000e-01       4.46873e-06       1.11159e-06       1.63298e-14       4.75497e-09       4.85998e-01       4.24312e-01       4.85998e-01      
 9.72000e-01       4.54856e-06       1.15216e-06       1.63443e-14       4.88141e-09       4.85998e-01       4.31988e-01       4.85998e-01      
 9.81000e-01       4.62794e-06       1.19346e-06       1.63585e-14       5.00951e-09       4.85998e-01       4.39683e-01       4.85998e-01      
 9.90000e-01       4.70688e-06       1.23546e-06       1.63722e-14       5.13930e-09       4.85998e-01       4.47398e-01       4.85998e-01      
 9.99000e-01       4.78535e-06       1.27818e-06       1.63857e-14       5.27081e-09       4.85998e-01       4.55132e-01       4.85998e-01      
 1.00800e+00       4.86335e-06       1.32160e-06       1.63987e-14       5.40406e-09       4.85998e-01       4.62886e-01       4.85998e-01      
 1.01700e+00       4.94087e-06       1.36572e-06       1.64114e-14       5.53907e-09       4.85998e-01       4.70659e-01       4.85998e-01      
 1.02600e+00       5.01790e-06       1.41053e-06       1.64239e-14       5.67587e-09       4.85998e-01       4.78451e-01       4.85998e-01      
 1.03500e+00       5.09443e-06       1.45603e-06       1.64360e-14       5.81450e-09       4.85998e-01       4.86262e-01       4.85998e-01      
 1.04400e+00       5.17045e-06       1.50222e-06       1.64478e-14       5.95498e-09       4.85998e-01       4.94092e-01       4.85998e-01      
 1.05300e+00       5.24595e-06       1.54910e-06       1.64594e-14       6.09735e-09       4.85998e-01       5.01941e-01       4.85998e-01      
 1.06200e+00       5.32092e-06       1.59665e-06       1.64707e-14       6.24163e-09       4.85998e-01       5.09808e-01       4.85998e-01      
 1.07100e+00       5.39536e-06       1.64487e-06       1.64817e-14       6.38786e-09       4.85998e-01       5.17695e-01       4.85998e-01      
 1.08000e+00       5.46924e-06       1.69376e-06       1.64925e-14       6.53608e-09       4.85998e-01       5.25601e-01       4.85998e-01      
 1.08900e+00       5.54256e-06       1.74331e-06       1.65031e-14       6.68633e-09       4.85998e-01       5.33526e-01       4.85998e-01      
 1.09800e+00       5.61531e-06       1.79352e-06       1.65135e-14       6.83864e-09       4.85998e-01       5.41469e-01       4.85998e-01      
 1.10700e+00       5.68749e-06       1.84438e-06       1.65236e-14       6.99305e-09       4.85998e-01       5.49432e-01       4.85998e-01      
 1.11600e+00       5.75908e-06       1.89589e-06       1.65336e-14       7.14961e-09       4.85998e-01       5.57414e-01       4.85998e-01      
 1.12500e+00       5.83007e-06       1.94804e-06       1.65433e-14       7.30836e-09       4.85998e-01       5.65414e-01       4.85998e-01      
 1.13400e+00       5.90046e-06       2.00083e-06       1.65529e-14       7.46935e-09       4.85998e-01       5.73434e-01       4.85998e-01      
 1.14300e+00       5.97024e-06       2.05425e-06       1.65623e-14       7.63262e-09       4.85998e-01       5.81473e-01       4.85998e-01      
 1.15200e+00       6.03940e-06       2.10829e-06       1.65715e-14       7.79822e-09       4.85998e-01       5.89531e-01       4.85998e-01      
 1.16100e+00       6.10792e-06       2.16295e-06       1.65805e-14       7.96621e-09       4.85998e-01       5.97609e-01       4.85998e-01      
 1.17000e+00       6.17581e-06       2.21823e-06       1.65894e-14       8.13663e-09       4.85998e-01       6.05705e-01       4.85998e-01      
 1.17900e+00       6.24305e-06       2.27411e-06       1.65981e-14       8.30955e-09       4.85998e-01       6.13821e-01       4.85998e-01      
 1.18800e+00       6.30964e-06       2.33060e-06       1.66067e-14       8.48502e-09       4.85998e-01       6.21957e-01       4.85998e-01      
 1.19700e+00       6.37556e-06       2.38768e-06       1.66151e-14       8.66310e-09       4.85998e-01       6.30112e-01       4.85998e-01      
 1.20600e+00       6.44082e-06       2.44536e-06       1.66234e-14       8.84385e-09       4.85998e-01       6.38286e-01       4.85998e-01      
 1.21500e+00       6.50540e-06       2.50361e-06       1.66315e-14       9.02735e-09       4.85998e-01       6.46481e-01       4.85998e-01      
