
dc (V)            getData("M0:gm    getData("M0:id    getData("M0:cg    getData("M0:gd    getData("M0:vt    getData("M0:vd    getData("M0:vt

 0.00000e+00       1.27290e-12       5.79958e-14       2.78355e-15       1.32808e-15       4.87649e-01       3.96047e-02       4.87649e-01      
 9.00000e-03       1.70646e-12       7.04234e-14       2.77230e-15       1.78066e-15       4.87649e-01       3.96047e-02       4.87649e-01      
 1.80000e-02       2.28757e-12       8.74827e-14       2.76152e-15       2.38737e-15       4.87649e-01       3.96048e-02       4.87649e-01      
 2.70000e-02       3.06636e-12       1.10708e-13       2.75124e-15       3.20067e-15       4.87649e-01       3.96048e-02       4.87649e-01      
 3.60000e-02       4.10997e-12       1.42158e-13       2.74150e-15       4.29079e-15       4.87649e-01       3.96049e-02       4.87649e-01      
 4.50000e-02       5.50825e-12       1.84595e-13       2.73234e-15       5.75186e-15       4.87649e-01       3.96050e-02       4.87649e-01      
 5.40000e-02       7.38146e-12       2.41720e-13       2.72382e-15       7.70988e-15       4.87649e-01       3.96051e-02       4.87649e-01      
 6.30000e-02       9.89048e-12       3.18493e-13       2.71600e-15       1.03336e-14       4.87649e-01       3.96053e-02       4.87649e-01      
 7.20000e-02       1.32504e-11       4.21553e-13       2.70899e-15       1.38489e-14       4.87649e-01       3.96056e-02       4.87649e-01      
 8.10000e-02       1.77487e-11       5.59788e-13       2.70287e-15       1.85578e-14       4.87649e-01       3.96059e-02       4.87649e-01      
 9.00000e-02       2.37695e-11       7.45089e-13       2.69780e-15       2.48647e-14       4.87649e-01       3.96063e-02       4.87649e-01      
 9.90000e-02       3.18251e-11       9.93355e-13       2.69393e-15       3.33098e-14       4.87649e-01       3.96069e-02       4.87649e-01      
 1.08000e-01       4.25992e-11       1.32583e-12       2.69147e-15       4.46151e-14       4.87649e-01       3.96077e-02       4.87649e-01      
 1.17000e-01       5.70025e-11       1.77090e-12       2.69064e-15       5.97448e-14       4.87649e-01       3.96087e-02       4.87649e-01      
 1.26000e-01       7.62447e-11       2.36643e-12       2.69166e-15       7.99849e-14       4.87649e-01       3.96101e-02       4.87649e-01      
 1.35000e-01       1.01933e-10       3.16286e-12       2.69486e-15       1.07049e-13       4.87649e-01       3.96120e-02       4.87649e-01      
 1.44000e-01       1.36202e-10       4.22740e-12       2.70072e-15       1.43218e-13       4.87649e-01       3.96145e-02       4.87649e-01      
 1.53000e-01       1.81880e-10       5.64945e-12       2.70971e-15       1.91526e-13       4.87649e-01       3.96178e-02       4.87649e-01      
 1.62000e-01       2.42699e-10       7.54774e-12       2.72237e-15       2.56002e-13       4.87649e-01       3.96223e-02       4.87649e-01      
 1.71000e-01       3.23581e-10       1.00798e-11       2.73930e-15       3.41982e-13       4.87649e-01       3.96282e-02       4.87649e-01      
 1.80000e-01       4.30989e-10       1.34539e-11       2.76121e-15       4.56528e-13       4.87649e-01       3.96361e-02       4.87649e-01      
 1.89000e-01       5.73388e-10       1.79455e-11       2.78886e-15       6.08950e-13       4.87649e-01       3.96466e-02       4.87649e-01      
 1.98000e-01       7.61811e-10       2.39169e-11       2.82309e-15       8.11497e-13       4.87649e-01       3.96605e-02       4.87649e-01      
 2.07000e-01       1.01058e-09       3.18444e-11       2.86479e-15       1.08022e-12       4.87649e-01       3.96790e-02       4.87649e-01      
 2.16000e-01       1.33816e-09       4.23509e-11       2.91490e-15       1.43606e-12       4.87649e-01       3.97036e-02       4.87649e-01      
 2.25000e-01       1.76824e-09       5.62483e-11       2.97437e-15       1.90624e-12       4.87649e-01       3.97359e-02       4.87649e-01      
 2.34000e-01       2.33098e-09       7.45899e-11       3.04412e-15       2.52586e-12       4.87649e-01       3.97786e-02       4.87649e-01      
 2.43000e-01       3.06443e-09       9.87349e-11       3.12504e-15       3.33998e-12       4.87649e-01       3.98346e-02       4.87649e-01      
 2.52000e-01       4.01614e-09       1.30427e-10       3.21794e-15       4.40590e-12       4.87649e-01       3.99079e-02       4.87649e-01      
 2.61000e-01       5.24497e-09       1.71886e-10       3.32349e-15       5.79581e-12       4.87649e-01       4.00034e-02       4.87649e-01      
 2.70000e-01       6.82282e-09       2.25922e-10       3.44222e-15       7.59975e-12       4.87649e-01       4.01272e-02       4.87649e-01      
 2.79000e-01       8.83642e-09       2.96054e-10       3.57446e-15       9.92849e-12       4.87649e-01       4.02869e-02       4.87649e-01      
 2.88000e-01       1.13889e-08       3.86659e-10       3.72036e-15       1.29164e-11       4.87649e-01       4.04914e-02       4.87649e-01      
 2.97000e-01       1.46008e-08       5.03117e-10       3.87982e-15       1.67236e-11       4.87649e-01       4.07514e-02       4.87649e-01      
 3.06000e-01       1.86109e-08       6.51977e-10       4.05252e-15       2.15376e-11       4.87649e-01       4.10794e-02       4.87649e-01      
 3.15000e-01       2.35756e-08       8.41116e-10       4.23790e-15       2.75727e-11       4.87649e-01       4.14892e-02       4.87649e-01      
 3.24000e-01       2.96676e-08       1.07989e-09       4.43517e-15       3.50681e-11       4.87649e-01       4.19963e-02       4.87649e-01      
 3.33000e-01       3.70731e-08       1.37929e-09       4.64333e-15       4.42834e-11       4.87649e-01       4.26167e-02       4.87649e-01      
 3.42000e-01       4.59877e-08       1.75201e-09       4.86120e-15       5.54918e-11       4.87649e-01       4.33672e-02       4.87649e-01      
 3.51000e-01       5.66109e-08       2.21253e-09       5.08742e-15       6.89709e-11       4.87649e-01       4.42639e-02       4.87649e-01      
 3.60000e-01       6.91389e-08       2.77713e-09       5.32052e-15       8.49925e-11       4.87649e-01       4.53218e-02       4.87649e-01      
 3.69000e-01       8.37590e-08       3.46381e-09       5.55891e-15       1.03812e-10       4.87649e-01       4.65541e-02       4.87649e-01      
 3.78000e-01       1.00643e-07       4.29219e-09       5.80096e-15       1.25659e-10       4.87649e-01       4.79714e-02       4.87649e-01      
 3.87000e-01       1.19947e-07       5.28336e-09       6.04504e-15       1.50730e-10       4.87649e-01       4.95816e-02       4.87649e-01      
 3.96000e-01       1.41809e-07       6.45974e-09       6.28953e-15       1.79187e-10       4.87649e-01       5.13895e-02       4.87649e-01      
 4.05000e-01       1.66354e-07       7.84494e-09       6.53287e-15       2.11155e-10       4.87649e-01       5.33974e-02       4.87649e-01      
 4.14000e-01       1.93706e-07       9.46365e-09       6.77360e-15       2.46728e-10       4.87649e-01       5.56053e-02       4.87649e-01      
 4.23000e-01       2.23988e-07       1.13417e-08       7.01037e-15       2.85972e-10       4.87649e-01       5.80117e-02       4.87649e-01      
 4.32000e-01       2.57336e-07       1.35061e-08       7.24197e-15       3.28938e-10       4.87649e-01       6.06137e-02       4.87649e-01      
 4.41000e-01       2.93900e-07       1.59850e-08       7.46737e-15       3.75664e-10       4.87649e-01       6.34080e-02       4.87649e-01      
 4.50000e-01       3.33844e-07       1.88082e-08       7.68566e-15       4.26182e-10       4.87649e-01       6.63915e-02       4.87649e-01      
 4.59000e-01       3.77344e-07       2.20069e-08       7.89612e-15       4.80524e-10       4.87649e-01       6.95607e-02       4.87649e-01      
 4.68000e-01       4.24577e-07       2.56138e-08       8.09818e-15       5.38724e-10       4.87649e-01       7.29129e-02       4.87649e-01      
 4.77000e-01       4.75717e-07       2.96634e-08       8.29144e-15       6.00818e-10       4.87649e-01       7.64453e-02       4.87649e-01      
 4.86000e-01       5.30925e-07       3.41915e-08       8.47562e-15       6.66844e-10       4.87649e-01       8.01556e-02       4.87649e-01      
 4.95000e-01       5.90334e-07       3.92355e-08       8.65059e-15       7.36839e-10       4.87649e-01       8.40416e-02       4.87649e-01      
 5.04000e-01       6.54051e-07       4.48335e-08       8.81631e-15       8.10839e-10       4.87649e-01       8.81009e-02       4.87649e-01      
 5.13000e-01       7.22141e-07       5.10248e-08       8.97287e-15       8.88873e-10       4.87649e-01       9.23311e-02       4.87649e-01      
 5.22000e-01       7.94631e-07       5.78487e-08       9.12043e-15       9.70968e-10       4.87649e-01       9.67294e-02       4.87649e-01      
 5.31000e-01       8.71503e-07       6.53450e-08       9.25921e-15       1.05714e-09       4.87649e-01       1.01293e-01       4.87649e-01      
 5.40000e-01       9.52697e-07       7.35526e-08       9.38950e-15       1.14739e-09       4.87649e-01       1.06017e-01       4.87649e-01      
 5.49000e-01       1.03811e-06       8.25102e-08       9.51164e-15       1.24172e-09       4.87649e-01       1.10900e-01       4.87649e-01      
 5.58000e-01       1.12761e-06       9.22551e-08       9.62598e-15       1.34012e-09       4.87649e-01       1.15935e-01       4.87649e-01      
 5.67000e-01       1.22101e-06       1.02823e-07       9.73291e-15       1.44256e-09       4.87649e-01       1.21118e-01       4.87649e-01      
 5.76000e-01       1.31812e-06       1.14249e-07       9.83281e-15       1.54901e-09       4.87649e-01       1.26444e-01       4.87649e-01      
 5.85000e-01       1.41872e-06       1.26564e-07       9.92609e-15       1.65942e-09       4.87649e-01       1.31908e-01       4.87649e-01      
 5.94000e-01       1.52256e-06       1.39800e-07       1.00131e-14       1.77375e-09       4.87649e-01       1.37503e-01       4.87649e-01      
 6.03000e-01       1.62940e-06       1.53984e-07       1.00944e-14       1.89193e-09       4.87649e-01       1.43224e-01       4.87649e-01      
 6.12000e-01       1.73898e-06       1.69143e-07       1.01701e-14       2.01392e-09       4.87649e-01       1.49064e-01       4.87649e-01      
 6.21000e-01       1.85105e-06       1.85298e-07       1.02408e-14       2.13964e-09       4.87649e-01       1.55017e-01       4.87649e-01      
 6.30000e-01       1.96536e-06       2.02473e-07       1.03067e-14       2.26902e-09       4.87649e-01       1.61078e-01       4.87649e-01      
 6.39000e-01       2.08165e-06       2.20686e-07       1.03683e-14       2.40200e-09       4.87649e-01       1.67240e-01       4.87649e-01      
 6.48000e-01       2.19969e-06       2.39953e-07       1.04258e-14       2.53851e-09       4.87649e-01       1.73497e-01       4.87649e-01      
 6.57000e-01       2.31926e-06       2.60289e-07       1.04794e-14       2.67848e-09       4.87649e-01       1.79844e-01       4.87649e-01      
 6.66000e-01       2.44016e-06       2.81708e-07       1.05296e-14       2.82184e-09       4.87649e-01       1.86276e-01       4.87649e-01      
 6.75000e-01       2.56218e-06       3.04220e-07       1.05766e-14       2.96853e-09       4.87649e-01       1.92787e-01       4.87649e-01      
 6.84000e-01       2.68514e-06       3.27834e-07       1.06206e-14       3.11849e-09       4.87649e-01       1.99372e-01       4.87649e-01      
 6.93000e-01       2.80888e-06       3.52559e-07       1.06618e-14       3.27165e-09       4.87649e-01       2.06027e-01       4.87649e-01      
 7.02000e-01       2.93325e-06       3.78400e-07       1.07005e-14       3.42796e-09       4.87649e-01       2.12747e-01       4.87649e-01      
 7.11000e-01       3.05811e-06       4.05363e-07       1.07368e-14       3.58737e-09       4.87649e-01       2.19527e-01       4.87649e-01      
 7.20000e-01       3.18334e-06       4.33451e-07       1.07709e-14       3.74983e-09       4.87649e-01       2.26366e-01       4.87649e-01      
 7.29000e-01       3.30883e-06       4.62667e-07       1.08031e-14       3.91529e-09       4.87649e-01       2.33257e-01       4.87649e-01      
 7.38000e-01       3.43448e-06       4.93013e-07       1.08334e-14       4.08373e-09       4.87649e-01       2.40200e-01       4.87649e-01      
 7.47000e-01       3.56020e-06       5.24491e-07       1.08620e-14       4.25510e-09       4.87649e-01       2.47189e-01       4.87649e-01      
 7.56000e-01       3.68592e-06       5.57099e-07       1.08890e-14       4.42936e-09       4.87649e-01       2.54223e-01       4.87649e-01      
 7.65000e-01       3.81156e-06       5.90839e-07       1.09146e-14       4.60650e-09       4.87649e-01       2.61299e-01       4.87649e-01      
 7.74000e-01       3.93707e-06       6.25709e-07       1.09388e-14       4.78649e-09       4.87649e-01       2.68414e-01       4.87649e-01      
 7.83000e-01       4.06239e-06       6.61708e-07       1.09618e-14       4.96930e-09       4.87649e-01       2.75566e-01       4.87649e-01      
 7.92000e-01       4.18747e-06       6.98833e-07       1.09836e-14       5.15493e-09       4.87649e-01       2.82754e-01       4.87649e-01      
 8.01000e-01       4.31228e-06       7.37082e-07       1.10044e-14       5.34336e-09       4.87649e-01       2.89975e-01       4.87649e-01      
 8.10000e-01       4.43677e-06       7.76454e-07       1.10242e-14       5.53458e-09       4.87649e-01       2.97227e-01       4.87649e-01      
 8.19000e-01       4.56091e-06       8.16944e-07       1.10430e-14       5.72859e-09       4.87649e-01       3.04510e-01       4.87649e-01      
 8.28000e-01       4.68467e-06       8.58549e-07       1.10611e-14       5.92538e-09       4.87649e-01       3.11822e-01       4.87649e-01      
 8.37000e-01       4.80803e-06       9.01267e-07       1.10783e-14       6.12495e-09       4.87649e-01       3.19162e-01       4.87649e-01      
 8.46000e-01       4.93095e-06       9.45092e-07       1.10948e-14       6.32731e-09       4.87649e-01       3.26528e-01       4.87649e-01      
 8.55000e-01       5.05342e-06       9.90022e-07       1.11106e-14       6.53246e-09       4.87649e-01       3.33920e-01       4.87649e-01      
 8.64000e-01       5.17542e-06       1.03605e-06       1.11258e-14       6.74041e-09       4.87649e-01       3.41336e-01       4.87649e-01      
 8.73000e-01       5.29692e-06       1.08318e-06       1.11404e-14       6.95118e-09       4.87649e-01       3.48776e-01       4.87649e-01      
 8.82000e-01       5.41791e-06       1.13139e-06       1.11545e-14       7.16478e-09       4.87649e-01       3.56239e-01       4.87649e-01      
 8.91000e-01       5.53838e-06       1.18070e-06       1.11680e-14       7.38122e-09       4.87649e-01       3.63725e-01       4.87649e-01      
 9.00000e-01       5.65830e-06       1.23108e-06       1.11810e-14       7.60052e-09       4.87649e-01       3.71232e-01       4.87649e-01      
 9.09000e-01       5.77766e-06       1.28254e-06       1.11936e-14       7.82271e-09       4.87649e-01       3.78761e-01       4.87649e-01      
 9.18000e-01       5.89645e-06       1.33508e-06       1.12058e-14       8.04781e-09       4.87649e-01       3.86310e-01       4.87649e-01      
 9.27000e-01       6.01464e-06       1.38867e-06       1.12175e-14       8.27584e-09       4.87649e-01       3.93880e-01       4.87649e-01      
 9.36000e-01       6.13224e-06       1.44333e-06       1.12289e-14       8.50684e-09       4.87649e-01       4.01469e-01       4.87649e-01      
 9.45000e-01       6.24921e-06       1.49905e-06       1.12399e-14       8.74083e-09       4.87649e-01       4.09079e-01       4.87649e-01      
 9.54000e-01       6.36555e-06       1.55582e-06       1.12506e-14       8.97785e-09       4.87649e-01       4.16707e-01       4.87649e-01      
 9.63000e-01       6.48125e-06       1.61363e-06       1.12610e-14       9.21793e-09       4.87649e-01       4.24355e-01       4.87649e-01      
 9.72000e-01       6.59628e-06       1.67247e-06       1.12711e-14       9.46110e-09       4.87649e-01       4.32022e-01       4.87649e-01      
 9.81000e-01       6.71064e-06       1.73235e-06       1.12809e-14       9.70742e-09       4.87649e-01       4.39708e-01       4.87649e-01      
 9.90000e-01       6.82432e-06       1.79326e-06       1.12905e-14       9.95691e-09       4.87649e-01       4.47412e-01       4.87649e-01      
 9.99000e-01       6.93729e-06       1.85519e-06       1.12997e-14       1.02096e-08       4.87649e-01       4.55134e-01       4.87649e-01      
 1.00800e+00       7.04954e-06       1.91813e-06       1.13088e-14       1.04656e-08       4.87649e-01       4.62875e-01       4.87649e-01      
 1.01700e+00       7.16107e-06       1.98207e-06       1.13176e-14       1.07249e-08       4.87649e-01       4.70634e-01       4.87649e-01      
 1.02600e+00       7.27185e-06       2.04702e-06       1.13262e-14       1.09876e-08       4.87649e-01       4.78411e-01       4.87649e-01      
 1.03500e+00       7.38187e-06       2.11296e-06       1.13346e-14       1.12536e-08       4.87649e-01       4.86206e-01       4.87649e-01      
 1.04400e+00       7.49113e-06       2.17989e-06       1.13428e-14       1.15232e-08       4.87649e-01       4.94019e-01       4.87649e-01      
 1.05300e+00       7.59960e-06       2.24779e-06       1.13508e-14       1.17963e-08       4.87649e-01       5.01850e-01       4.87649e-01      
 1.06200e+00       7.70727e-06       2.31667e-06       1.13586e-14       1.20729e-08       4.87649e-01       5.09698e-01       4.87649e-01      
 1.07100e+00       7.81413e-06       2.38652e-06       1.13662e-14       1.23532e-08       4.87649e-01       5.17565e-01       4.87649e-01      
 1.08000e+00       7.92016e-06       2.45732e-06       1.13737e-14       1.26373e-08       4.87649e-01       5.25450e-01       4.87649e-01      
 1.08900e+00       8.02536e-06       2.52908e-06       1.13811e-14       1.29251e-08       4.87649e-01       5.33353e-01       4.87649e-01      
 1.09800e+00       8.12970e-06       2.60177e-06       1.13882e-14       1.32167e-08       4.87649e-01       5.41274e-01       4.87649e-01      
 1.10700e+00       8.23319e-06       2.67540e-06       1.13953e-14       1.35123e-08       4.87649e-01       5.49212e-01       4.87649e-01      
 1.11600e+00       8.33579e-06       2.74996e-06       1.14021e-14       1.38119e-08       4.87649e-01       5.57169e-01       4.87649e-01      
 1.12500e+00       8.43751e-06       2.82544e-06       1.14089e-14       1.41156e-08       4.87649e-01       5.65144e-01       4.87649e-01      
 1.13400e+00       8.53833e-06       2.90183e-06       1.14155e-14       1.44234e-08       4.87649e-01       5.73136e-01       4.87649e-01      
 1.14300e+00       8.63823e-06       2.97913e-06       1.14220e-14       1.47355e-08       4.87649e-01       5.81147e-01       4.87649e-01      
 1.15200e+00       8.73721e-06       3.05732e-06       1.14284e-14       1.50519e-08       4.87649e-01       5.89177e-01       4.87649e-01      
 1.16100e+00       8.83526e-06       3.13639e-06       1.14347e-14       1.53727e-08       4.87649e-01       5.97224e-01       4.87649e-01      
 1.17000e+00       8.93236e-06       3.21634e-06       1.14408e-14       1.56981e-08       4.87649e-01       6.05290e-01       4.87649e-01      
 1.17900e+00       9.02850e-06       3.29717e-06       1.14468e-14       1.60281e-08       4.87649e-01       6.13374e-01       4.87649e-01      
 1.18800e+00       9.12367e-06       3.37885e-06       1.14528e-14       1.63628e-08       4.87649e-01       6.21476e-01       4.87649e-01      
 1.19700e+00       9.21787e-06       3.46139e-06       1.14586e-14       1.67023e-08       4.87649e-01       6.29598e-01       4.87649e-01      
 1.20600e+00       9.31108e-06       3.54477e-06       1.14643e-14       1.70468e-08       4.87649e-01       6.37737e-01       4.87649e-01      
 1.21500e+00       9.40329e-06       3.62898e-06       1.14700e-14       1.73964e-08       4.87649e-01       6.45896e-01       4.87649e-01      
