
dc (V)            getData("M0:gm    getData("M0:id    getData("M0:cg    getData("M0:gd    getData("M0:vt    getData("M0:vd    getData("M0:vt

 0.00000e+00       8.15592e-13       4.39219e-14       4.33087e-15       5.74858e-16       4.85686e-01       3.92669e-02       4.85686e-01      
 9.00000e-03       1.09382e-12       5.15667e-14       4.31306e-15       7.71059e-16       4.85686e-01       3.92669e-02       4.85686e-01      
 1.80000e-02       1.46688e-12       6.22187e-14       4.29601e-15       1.03418e-15       4.85686e-01       3.92669e-02       4.85686e-01      
 2.70000e-02       1.96703e-12       7.68610e-14       4.27977e-15       1.38704e-15       4.85686e-01       3.92670e-02       4.85686e-01      
 3.60000e-02       2.63751e-12       9.68148e-14       4.26440e-15       1.86018e-15       4.85686e-01       3.92671e-02       4.85686e-01      
 4.50000e-02       3.53619e-12       1.23854e-13       4.24997e-15       2.49456e-15       4.85686e-01       3.92672e-02       4.85686e-01      
 5.40000e-02       4.74055e-12       1.60358e-13       4.23657e-15       3.34505e-15       4.85686e-01       3.92673e-02       4.85686e-01      
 6.30000e-02       6.35430e-12       2.09517e-13       4.22434e-15       4.48512e-15       4.85686e-01       3.92675e-02       4.85686e-01      
 7.20000e-02       8.51611e-12       2.75605e-13       4.21340e-15       6.01315e-15       4.85686e-01       3.92678e-02       4.85686e-01      
 8.10000e-02       1.14114e-11       3.64346e-13       4.20394e-15       8.06082e-15       4.85686e-01       3.92681e-02       4.85686e-01      
 9.00000e-02       1.52879e-11       4.83399e-13       4.19617e-15       1.08043e-14       4.85686e-01       3.92686e-02       4.85686e-01      
 9.90000e-02       2.04763e-11       6.43014e-13       4.19038e-15       1.44793e-14       4.85686e-01       3.92692e-02       4.85686e-01      
 1.08000e-01       2.74178e-11       8.56888e-13       4.18688e-15       1.94006e-14       4.85686e-01       3.92700e-02       4.85686e-01      
 1.17000e-01       3.67004e-11       1.14332e-12       4.18606e-15       2.59890e-14       4.85686e-01       3.92711e-02       4.85686e-01      
 1.26000e-01       4.91052e-11       1.52675e-12       4.18829e-15       3.48056e-14       4.85686e-01       3.92725e-02       4.85686e-01      
 1.35000e-01       6.56698e-11       2.03972e-12       4.19409e-15       4.65984e-14       4.85686e-01       3.92745e-02       4.85686e-01      
 1.44000e-01       8.77737e-11       2.72560e-12       4.20424e-15       6.23634e-14       4.85686e-01       3.92771e-02       4.85686e-01      
 1.53000e-01       1.17242e-10       3.64210e-12       4.21952e-15       8.34254e-14       4.85686e-01       3.92806e-02       4.85686e-01      
 1.62000e-01       1.56486e-10       4.86589e-12       4.24080e-15       1.11543e-13       4.85686e-01       3.92852e-02       4.85686e-01      
 1.71000e-01       2.08683e-10       6.49862e-12       4.26909e-15       1.49048e-13       4.85686e-01       3.92914e-02       4.85686e-01      
 1.80000e-01       2.78007e-10       8.67486e-12       4.30549e-15       1.99024e-13       4.85686e-01       3.92997e-02       4.85686e-01      
 1.89000e-01       3.69918e-10       1.15723e-11       4.35128e-15       2.65536e-13       4.85686e-01       3.93107e-02       4.85686e-01      
 1.98000e-01       4.91536e-10       1.54250e-11       4.40778e-15       3.53931e-13       4.85686e-01       3.93253e-02       4.85686e-01      
 2.07000e-01       6.52090e-10       2.05401e-11       4.47644e-15       4.71215e-13       4.85686e-01       3.93446e-02       4.85686e-01      
 2.16000e-01       8.63482e-10       2.73196e-11       4.55876e-15       6.26527e-13       4.85686e-01       3.93703e-02       4.85686e-01      
 2.25000e-01       1.14096e-09       3.62870e-11       4.65624e-15       8.31729e-13       4.85686e-01       3.94042e-02       4.85686e-01      
 2.34000e-01       1.50390e-09       4.81213e-11       4.77036e-15       1.10213e-12       4.85686e-01       3.94488e-02       4.85686e-01      
 2.43000e-01       1.97675e-09       6.36976e-11       4.90250e-15       1.45733e-12       4.85686e-01       3.95074e-02       4.85686e-01      
 2.52000e-01       2.59001e-09       8.41381e-11       5.05391e-15       1.92226e-12       4.85686e-01       3.95840e-02       4.85686e-01      
 2.61000e-01       3.38135e-09       1.10871e-10       5.22562e-15       2.52828e-12       4.85686e-01       3.96838e-02       4.85686e-01      
 2.70000e-01       4.39672e-09       1.45699e-10       5.41841e-15       3.31445e-12       4.85686e-01       3.98130e-02       4.85686e-01      
 2.79000e-01       5.69146e-09       1.90881e-10       5.63276e-15       4.32872e-12       4.85686e-01       3.99795e-02       4.85686e-01      
 2.88000e-01       7.33120e-09       2.49221e-10       5.86883e-15       5.62919e-12       4.85686e-01       4.01926e-02       4.85686e-01      
 2.97000e-01       9.39260e-09       3.24161e-10       6.12637e-15       7.28496e-12       4.85686e-01       4.04632e-02       4.85686e-01      
 3.06000e-01       1.19636e-08       4.19885e-10       6.40482e-15       9.37672e-12       4.85686e-01       4.08039e-02       4.85686e-01      
 3.15000e-01       1.51430e-08       5.41418e-10       6.70319e-15       1.19966e-11       4.85686e-01       4.12289e-02       4.85686e-01      
 3.24000e-01       1.90400e-08       6.94722e-10       7.02016e-15       1.52471e-11       4.85686e-01       4.17537e-02       4.85686e-01      
 3.33000e-01       2.37717e-08       8.86780e-10       7.35408e-15       1.92394e-11       4.85686e-01       4.23945e-02       4.85686e-01      
 3.42000e-01       2.94609e-08       1.12566e-09       7.70300e-15       2.40903e-11       4.85686e-01       4.31677e-02       4.85686e-01      
 3.51000e-01       3.62322e-08       1.42053e-09       8.06471e-15       2.99185e-11       4.85686e-01       4.40894e-02       4.85686e-01      
 3.60000e-01       4.42081e-08       1.78171e-09       8.43681e-15       3.68403e-11       4.85686e-01       4.51739e-02       4.85686e-01      
 3.69000e-01       5.35049e-08       2.22056e-09       8.81678e-15       4.49654e-11       4.85686e-01       4.64340e-02       4.85686e-01      
 3.78000e-01       6.42295e-08       2.74945e-09       9.20201e-15       5.43931e-11       4.85686e-01       4.78795e-02       4.85686e-01      
 3.87000e-01       7.64782e-08       3.38170e-09       9.58988e-15       6.52093e-11       4.85686e-01       4.95177e-02       4.85686e-01      
 3.96000e-01       9.03378e-08       4.13141e-09       9.97785e-15       7.74859e-11       4.85686e-01       5.13529e-02       4.85686e-01      
 4.05000e-01       1.05889e-07       5.01346e-09       1.03635e-14       9.12803e-11       4.85686e-01       5.33867e-02       4.85686e-01      
 4.14000e-01       1.23209e-07       6.04341e-09       1.07444e-14       1.06637e-10       4.85686e-01       5.56189e-02       4.85686e-01      
 4.23000e-01       1.42380e-07       7.23756e-09       1.11186e-14       1.23592e-10       4.85686e-01       5.80475e-02       4.85686e-01      
 4.32000e-01       1.63491e-07       8.61296e-09       1.14842e-14       1.42172e-10       4.85686e-01       6.06697e-02       4.85686e-01      
 4.41000e-01       1.86639e-07       1.01875e-08       1.18396e-14       1.62400e-10       4.85686e-01       6.34824e-02       4.85686e-01      
 4.50000e-01       2.11932e-07       1.19800e-08       1.21834e-14       1.84297e-10       4.85686e-01       6.64823e-02       4.85686e-01      
 4.59000e-01       2.39481e-07       1.40103e-08       1.25145e-14       2.07884e-10       4.85686e-01       6.96662e-02       4.85686e-01      
 4.68000e-01       2.69400e-07       1.62992e-08       1.28321e-14       2.33181e-10       4.85686e-01       7.30315e-02       4.85686e-01      
 4.77000e-01       3.01798e-07       1.88684e-08       1.31356e-14       2.60210e-10       4.85686e-01       7.65757e-02       4.85686e-01      
 4.86000e-01       3.36775e-07       2.17409e-08       1.34246e-14       2.88993e-10       4.85686e-01       8.02965e-02       4.85686e-01      
 4.95000e-01       3.74413e-07       2.49401e-08       1.36989e-14       3.19549e-10       4.85686e-01       8.41918e-02       4.85686e-01      
 5.04000e-01       4.14774e-07       2.84904e-08       1.39585e-14       3.51899e-10       4.85686e-01       8.82593e-02       4.85686e-01      
 5.13000e-01       4.57898e-07       3.24164e-08       1.42036e-14       3.86057e-10       4.85686e-01       9.24965e-02       4.85686e-01      
 5.22000e-01       5.03796e-07       3.67430e-08       1.44345e-14       4.22038e-10       4.85686e-01       9.69008e-02       4.85686e-01      
 5.31000e-01       5.52454e-07       4.14953e-08       1.46515e-14       4.59850e-10       4.85686e-01       1.01469e-01       4.85686e-01      
 5.40000e-01       6.03830e-07       4.66978e-08       1.48552e-14       4.99497e-10       4.85686e-01       1.06198e-01       4.85686e-01      
 5.49000e-01       6.57857e-07       5.23747e-08       1.50460e-14       5.40978e-10       4.85686e-01       1.11082e-01       4.85686e-01      
 5.58000e-01       7.14445e-07       5.85495e-08       1.52245e-14       5.84288e-10       4.85686e-01       1.16119e-01       4.85686e-01      
 5.67000e-01       7.73482e-07       6.52447e-08       1.53915e-14       6.29417e-10       4.85686e-01       1.21302e-01       4.85686e-01      
 5.76000e-01       8.34842e-07       7.24819e-08       1.55474e-14       6.76350e-10       4.85686e-01       1.26628e-01       4.85686e-01      
 5.85000e-01       8.98383e-07       8.02813e-08       1.56929e-14       7.25067e-10       4.85686e-01       1.32089e-01       4.85686e-01      
 5.94000e-01       9.63956e-07       8.86618e-08       1.58287e-14       7.75548e-10       4.85686e-01       1.37680e-01       4.85686e-01      
 6.03000e-01       1.03140e-06       9.76411e-08       1.59554e-14       8.27767e-10       4.85686e-01       1.43396e-01       4.85686e-01      
 6.12000e-01       1.10057e-06       1.07235e-07       1.60736e-14       8.81697e-10       4.85686e-01       1.49230e-01       4.85686e-01      
 6.21000e-01       1.17129e-06       1.17459e-07       1.61838e-14       9.37308e-10       4.85686e-01       1.55177e-01       4.85686e-01      
 6.30000e-01       1.24341e-06       1.28326e-07       1.62866e-14       9.94572e-10       4.85686e-01       1.61230e-01       4.85686e-01      
 6.39000e-01       1.31677e-06       1.39847e-07       1.63826e-14       1.05346e-09       4.85686e-01       1.67383e-01       4.85686e-01      
 6.48000e-01       1.39124e-06       1.52034e-07       1.64722e-14       1.11393e-09       4.85686e-01       1.73631e-01       4.85686e-01      
 6.57000e-01       1.46668e-06       1.64895e-07       1.65560e-14       1.17597e-09       4.85686e-01       1.79968e-01       4.85686e-01      
 6.66000e-01       1.54295e-06       1.78439e-07       1.66343e-14       1.23953e-09       4.85686e-01       1.86389e-01       4.85686e-01      
 6.75000e-01       1.61993e-06       1.92673e-07       1.67075e-14       1.30460e-09       4.85686e-01       1.92888e-01       4.85686e-01      
 6.84000e-01       1.69751e-06       2.07603e-07       1.67761e-14       1.37115e-09       4.85686e-01       1.99462e-01       4.85686e-01      
 6.93000e-01       1.77560e-06       2.23233e-07       1.68404e-14       1.43914e-09       4.85686e-01       2.06105e-01       4.85686e-01      
 7.02000e-01       1.85410e-06       2.39567e-07       1.69008e-14       1.50855e-09       4.85686e-01       2.12812e-01       4.85686e-01      
 7.11000e-01       1.93292e-06       2.56610e-07       1.69575e-14       1.57937e-09       4.85686e-01       2.19581e-01       4.85686e-01      
 7.20000e-01       2.01200e-06       2.74363e-07       1.70108e-14       1.65157e-09       4.85686e-01       2.26407e-01       4.85686e-01      
 7.29000e-01       2.09126e-06       2.92828e-07       1.70610e-14       1.72513e-09       4.85686e-01       2.33286e-01       4.85686e-01      
 7.38000e-01       2.17064e-06       3.12008e-07       1.71083e-14       1.80003e-09       4.85686e-01       2.40217e-01       4.85686e-01      
 7.47000e-01       2.25008e-06       3.31902e-07       1.71530e-14       1.87626e-09       4.85686e-01       2.47194e-01       4.85686e-01      
 7.56000e-01       2.32955e-06       3.52511e-07       1.71952e-14       1.95380e-09       4.85686e-01       2.54217e-01       4.85686e-01      
 7.65000e-01       2.40900e-06       3.73835e-07       1.72352e-14       2.03265e-09       4.85686e-01       2.61281e-01       4.85686e-01      
 7.74000e-01       2.48839e-06       3.95874e-07       1.72731e-14       2.11280e-09       4.85686e-01       2.68386e-01       4.85686e-01      
 7.83000e-01       2.56769e-06       4.18627e-07       1.73090e-14       2.19423e-09       4.85686e-01       2.75529e-01       4.85686e-01      
 7.92000e-01       2.64687e-06       4.42093e-07       1.73432e-14       2.27693e-09       4.85686e-01       2.82707e-01       4.85686e-01      
 8.01000e-01       2.72590e-06       4.66271e-07       1.73757e-14       2.36091e-09       4.85686e-01       2.89919e-01       4.85686e-01      
 8.10000e-01       2.80476e-06       4.91159e-07       1.74066e-14       2.44617e-09       4.85686e-01       2.97164e-01       4.85686e-01      
 8.19000e-01       2.88343e-06       5.16756e-07       1.74362e-14       2.53269e-09       4.85686e-01       3.04440e-01       4.85686e-01      
 8.28000e-01       2.96189e-06       5.43061e-07       1.74644e-14       2.62047e-09       4.85686e-01       3.11746e-01       4.85686e-01      
 8.37000e-01       3.04013e-06       5.70070e-07       1.74914e-14       2.70953e-09       4.85686e-01       3.19080e-01       4.85686e-01      
 8.46000e-01       3.11812e-06       5.97782e-07       1.75173e-14       2.79986e-09       4.85686e-01       3.26442e-01       4.85686e-01      
 8.55000e-01       3.19585e-06       6.26195e-07       1.75421e-14       2.89146e-09       4.85686e-01       3.33830e-01       4.85686e-01      
 8.64000e-01       3.27331e-06       6.55306e-07       1.75659e-14       2.98435e-09       4.85686e-01       3.41243e-01       4.85686e-01      
 8.73000e-01       3.35050e-06       6.85113e-07       1.75888e-14       3.07852e-09       4.85686e-01       3.48682e-01       4.85686e-01      
 8.82000e-01       3.42739e-06       7.15613e-07       1.76108e-14       3.17398e-09       4.85686e-01       3.56144e-01       4.85686e-01      
 8.91000e-01       3.50397e-06       7.46804e-07       1.76320e-14       3.27075e-09       4.85686e-01       3.63630e-01       4.85686e-01      
 9.00000e-01       3.58024e-06       7.78683e-07       1.76525e-14       3.36882e-09       4.85686e-01       3.71139e-01       4.85686e-01      
 9.09000e-01       3.65618e-06       8.11247e-07       1.76722e-14       3.46822e-09       4.85686e-01       3.78670e-01       4.85686e-01      
 9.18000e-01       3.73179e-06       8.44492e-07       1.76913e-14       3.56895e-09       4.85686e-01       3.86222e-01       4.85686e-01      
 9.27000e-01       3.80706e-06       8.78416e-07       1.77098e-14       3.67103e-09       4.85686e-01       3.93797e-01       4.85686e-01      
 9.36000e-01       3.88197e-06       9.13017e-07       1.77276e-14       3.77447e-09       4.85686e-01       4.01392e-01       4.85686e-01      
 9.45000e-01       3.95652e-06       9.48289e-07       1.77449e-14       3.87929e-09       4.85686e-01       4.09008e-01       4.85686e-01      
 9.54000e-01       4.03069e-06       9.84231e-07       1.77617e-14       3.98549e-09       4.85686e-01       4.16645e-01       4.85686e-01      
 9.63000e-01       4.10449e-06       1.02084e-06       1.77781e-14       4.09311e-09       4.85686e-01       4.24302e-01       4.85686e-01      
 9.72000e-01       4.17789e-06       1.05811e-06       1.77939e-14       4.20215e-09       4.85686e-01       4.31979e-01       4.85686e-01      
 9.81000e-01       4.25089e-06       1.09604e-06       1.78093e-14       4.31263e-09       4.85686e-01       4.39676e-01       4.85686e-01      
 9.90000e-01       4.32348e-06       1.13462e-06       1.78243e-14       4.42458e-09       4.85686e-01       4.47393e-01       4.85686e-01      
 9.99000e-01       4.39565e-06       1.17386e-06       1.78389e-14       4.53802e-09       4.85686e-01       4.55129e-01       4.85686e-01      
 1.00800e+00       4.46739e-06       1.21374e-06       1.78531e-14       4.65296e-09       4.85686e-01       4.62885e-01       4.85686e-01      
 1.01700e+00       4.53869e-06       1.25427e-06       1.78669e-14       4.76943e-09       4.85686e-01       4.70660e-01       4.85686e-01      
 1.02600e+00       4.60955e-06       1.29543e-06       1.78804e-14       4.88746e-09       4.85686e-01       4.78454e-01       4.85686e-01      
 1.03500e+00       4.67995e-06       1.33724e-06       1.78936e-14       5.00707e-09       4.85686e-01       4.86268e-01       4.85686e-01      
 1.04400e+00       4.74989e-06       1.37967e-06       1.79065e-14       5.12829e-09       4.85686e-01       4.94100e-01       4.85686e-01      
 1.05300e+00       4.81935e-06       1.42273e-06       1.79190e-14       5.25114e-09       4.85686e-01       5.01952e-01       4.85686e-01      
 1.06200e+00       4.88833e-06       1.46641e-06       1.79313e-14       5.37566e-09       4.85686e-01       5.09823e-01       4.85686e-01      
 1.07100e+00       4.95682e-06       1.51072e-06       1.79434e-14       5.50186e-09       4.85686e-01       5.17713e-01       4.85686e-01      
 1.08000e+00       5.02480e-06       1.55563e-06       1.79551e-14       5.62980e-09       4.85686e-01       5.25622e-01       4.85686e-01      
 1.08900e+00       5.09228e-06       1.60116e-06       1.79666e-14       5.75949e-09       4.85686e-01       5.33551e-01       4.85686e-01      
 1.09800e+00       5.15924e-06       1.64729e-06       1.79779e-14       5.89097e-09       4.85686e-01       5.41498e-01       4.85686e-01      
 1.10700e+00       5.22566e-06       1.69402e-06       1.79889e-14       6.02428e-09       4.85686e-01       5.49465e-01       4.85686e-01      
 1.11600e+00       5.29156e-06       1.74135e-06       1.79998e-14       6.15945e-09       4.85686e-01       5.57451e-01       4.85686e-01      
 1.12500e+00       5.35691e-06       1.78927e-06       1.80104e-14       6.29653e-09       4.85686e-01       5.65456e-01       4.85686e-01      
 1.13400e+00       5.42170e-06       1.83777e-06       1.80208e-14       6.43555e-09       4.85686e-01       5.73480e-01       4.85686e-01      
 1.14300e+00       5.48594e-06       1.88685e-06       1.80310e-14       6.57655e-09       4.85686e-01       5.81523e-01       4.85686e-01      
 1.15200e+00       5.54961e-06       1.93651e-06       1.80410e-14       6.71958e-09       4.85686e-01       5.89586e-01       4.85686e-01      
 1.16100e+00       5.61270e-06       1.98674e-06       1.80508e-14       6.86468e-09       4.85686e-01       5.97669e-01       4.85686e-01      
 1.17000e+00       5.67520e-06       2.03754e-06       1.80605e-14       7.01190e-09       4.85686e-01       6.05771e-01       4.85686e-01      
 1.17900e+00       5.73712e-06       2.08889e-06       1.80700e-14       7.16129e-09       4.85686e-01       6.13892e-01       4.85686e-01      
 1.18800e+00       5.79844e-06       2.14080e-06       1.80793e-14       7.31290e-09       4.85686e-01       6.22033e-01       4.85686e-01      
 1.19700e+00       5.85915e-06       2.19326e-06       1.80884e-14       7.46678e-09       4.85686e-01       6.30194e-01       4.85686e-01      
 1.20600e+00       5.91925e-06       2.24626e-06       1.80974e-14       7.62299e-09       4.85686e-01       6.38374e-01       4.85686e-01      
 1.21500e+00       5.97874e-06       2.29980e-06       1.81063e-14       7.78158e-09       4.85686e-01       6.46575e-01       4.85686e-01      
