
dc (V)            getData("M0:gm    getData("M0:id    getData("M0:cg    getData("M0:gd    getData("M0:vt    getData("M0:vd    getData("M0:vt

 0.00000e+00       8.74778e-13       4.57412e-14       4.03859e-15       6.55749e-16       4.85948e-01       3.93106e-02       4.85948e-01      
 9.00000e-03       1.17314e-12       5.40051e-14       4.02202e-15       8.79515e-16       4.85948e-01       3.93106e-02       4.85948e-01      
 1.80000e-02       1.57317e-12       6.54868e-14       4.00615e-15       1.17959e-15       4.85948e-01       3.93107e-02       4.85948e-01      
 2.70000e-02       2.10946e-12       8.12409e-14       3.99104e-15       1.58197e-15       4.85948e-01       3.93107e-02       4.85948e-01      
 3.60000e-02       2.82834e-12       1.02684e-13       3.97673e-15       2.12151e-15       4.85948e-01       3.93108e-02       4.85948e-01      
 4.50000e-02       3.79186e-12       1.31719e-13       3.96329e-15       2.84487e-15       4.85948e-01       3.93109e-02       4.85948e-01      
 5.40000e-02       5.08305e-12       1.70897e-13       3.95082e-15       3.81460e-15       4.85948e-01       3.93110e-02       4.85948e-01      
 6.30000e-02       6.81306e-12       2.23638e-13       3.93942e-15       5.11444e-15       4.85948e-01       3.93112e-02       4.85948e-01      
 7.20000e-02       9.13051e-12       2.94523e-13       3.92922e-15       6.85654e-15       4.85948e-01       3.93115e-02       4.85948e-01      
 8.10000e-02       1.22341e-11       3.89688e-13       3.92039e-15       9.19098e-15       4.85948e-01       3.93118e-02       4.85948e-01      
 9.00000e-02       1.63893e-11       5.17344e-13       3.91313e-15       1.23185e-14       4.85948e-01       3.93123e-02       4.85948e-01      
 9.90000e-02       2.19505e-11       6.88473e-13       3.90770e-15       1.65078e-14       4.85948e-01       3.93129e-02       4.85948e-01      
 1.08000e-01       2.93905e-11       9.17756e-13       3.90439e-15       2.21175e-14       4.85948e-01       3.93137e-02       4.85948e-01      
 1.17000e-01       3.93393e-11       1.22481e-12       3.90357e-15       2.96271e-14       4.85948e-01       3.93148e-02       4.85948e-01      
 1.26000e-01       5.26339e-11       1.63581e-12       3.90556e-15       3.96762e-14       4.85948e-01       3.93162e-02       4.85948e-01      
 1.35000e-01       7.03861e-11       2.18564e-12       3.91086e-15       5.31169e-14       4.85948e-01       3.93181e-02       4.85948e-01      
 1.44000e-01       9.40740e-11       2.92077e-12       3.92020e-15       7.10843e-14       4.85948e-01       3.93207e-02       4.85948e-01      
 1.53000e-01       1.25653e-10       3.90305e-12       3.93429e-15       9.50877e-14       4.85948e-01       3.93242e-02       4.85948e-01      
 1.62000e-01       1.67708e-10       5.21462e-12       3.95393e-15       1.27132e-13       4.85948e-01       3.93288e-02       4.85948e-01      
 1.71000e-01       2.23641e-10       6.96441e-12       3.98006e-15       1.69872e-13       4.85948e-01       3.93350e-02       4.85948e-01      
 1.80000e-01       2.97927e-10       9.29662e-12       4.01372e-15       2.26822e-13       4.85948e-01       3.93432e-02       4.85948e-01      
 1.89000e-01       3.96417e-10       1.24016e-11       4.05606e-15       3.02614e-13       4.85948e-01       3.93541e-02       4.85948e-01      
 1.98000e-01       5.26739e-10       1.65303e-11       4.10834e-15       4.03342e-13       4.85948e-01       3.93686e-02       4.85948e-01      
 2.07000e-01       6.98787e-10       2.20117e-11       4.17190e-15       5.36989e-13       4.85948e-01       3.93879e-02       4.85948e-01      
 2.16000e-01       9.25318e-10       2.92767e-11       4.24811e-15       7.13968e-13       4.85948e-01       3.94134e-02       4.85948e-01      
 2.25000e-01       1.22268e-09       3.88864e-11       4.33839e-15       9.47800e-13       4.85948e-01       3.94470e-02       4.85948e-01      
 2.34000e-01       1.61164e-09       5.15683e-11       4.44411e-15       1.25593e-12       4.85948e-01       3.94914e-02       4.85948e-01      
 2.43000e-01       2.11842e-09       6.82608e-11       4.56655e-15       1.66071e-12       4.85948e-01       3.95496e-02       4.85948e-01      
 2.52000e-01       2.77573e-09       9.01666e-11       4.70688e-15       2.19054e-12       4.85948e-01       3.96258e-02       4.85948e-01      
 2.61000e-01       3.62398e-09       1.18817e-10       4.86607e-15       2.88121e-12       4.85948e-01       3.97250e-02       4.85948e-01      
 2.70000e-01       4.71249e-09       1.56145e-10       5.04485e-15       3.77723e-12       4.85948e-01       3.98535e-02       4.85948e-01      
 2.79000e-01       6.10065e-09       2.04575e-10       5.24367e-15       4.93332e-12       4.85948e-01       4.00191e-02       4.85948e-01      
 2.88000e-01       7.85892e-09       2.67112e-10       5.46268e-15       6.41574e-12       4.85948e-01       4.02310e-02       4.85948e-01      
 2.97000e-01       1.00696e-08       3.47450e-10       5.70168e-15       8.30338e-12       4.85948e-01       4.05001e-02       4.85948e-01      
 3.06000e-01       1.28272e-08       4.50079e-10       5.96012e-15       1.06883e-11       4.85948e-01       4.08391e-02       4.85948e-01      
 3.15000e-01       1.62379e-08       5.80392e-10       6.23713e-15       1.36757e-11       4.85948e-01       4.12620e-02       4.85948e-01      
 3.24000e-01       2.04190e-08       7.44790e-10       6.53148e-15       1.73826e-11       4.85948e-01       4.17844e-02       4.85948e-01      
 3.33000e-01       2.54964e-08       9.50771e-10       6.84163e-15       2.19359e-11       4.85948e-01       4.24225e-02       4.85948e-01      
 3.42000e-01       3.16023e-08       1.20700e-09       7.16578e-15       2.74692e-11       4.85948e-01       4.31926e-02       4.85948e-01      
 3.51000e-01       3.88708e-08       1.52333e-09       7.50189e-15       3.41177e-11       4.85948e-01       4.41109e-02       4.85948e-01      
 3.60000e-01       4.74337e-08       1.91083e-09       7.84773e-15       4.20144e-11       4.85948e-01       4.51919e-02       4.85948e-01      
 3.69000e-01       5.74164e-08       2.38173e-09       8.20095e-15       5.12843e-11       4.85948e-01       4.64482e-02       4.85948e-01      
 3.78000e-01       6.89339e-08       2.94933e-09       8.55914e-15       6.20403e-11       4.85948e-01       4.78899e-02       4.85948e-01      
 3.87000e-01       8.20901e-08       3.62793e-09       8.91986e-15       7.43803e-11       4.85948e-01       4.95244e-02       4.85948e-01      
 3.96000e-01       9.69783e-08       4.43271e-09       9.28073e-15       8.83856e-11       4.85948e-01       5.13559e-02       4.85948e-01      
 4.05000e-01       1.13685e-07       5.37965e-09       9.63947e-15       1.04121e-10       4.85948e-01       5.33862e-02       4.85948e-01      
 4.14000e-01       1.32293e-07       6.48548e-09       9.99395e-15       1.21637e-10       4.85948e-01       5.56151e-02       4.85948e-01      
 4.23000e-01       1.52891e-07       7.76774e-09       1.03422e-14       1.40971e-10       4.85948e-01       5.80408e-02       4.85948e-01      
 4.32000e-01       1.75573e-07       9.24474e-09       1.06825e-14       1.62155e-10       4.85948e-01       6.06603e-02       4.85948e-01      
 4.41000e-01       2.00444e-07       1.09357e-08       1.10134e-14       1.85213e-10       4.85948e-01       6.34705e-02       4.85948e-01      
 4.50000e-01       2.27619e-07       1.28608e-08       1.13335e-14       2.10167e-10       4.85948e-01       6.64681e-02       4.85948e-01      
 4.59000e-01       2.57216e-07       1.50414e-08       1.16418e-14       2.37041e-10       4.85948e-01       6.96500e-02       4.85948e-01      
 4.68000e-01       2.89360e-07       1.74999e-08       1.19376e-14       2.65857e-10       4.85948e-01       7.30135e-02       4.85948e-01      
 4.77000e-01       3.24167e-07       2.02595e-08       1.22203e-14       2.96637e-10       4.85948e-01       7.65561e-02       4.85948e-01      
 4.86000e-01       3.61743e-07       2.33449e-08       1.24895e-14       3.29405e-10       4.85948e-01       8.02754e-02       4.85948e-01      
 4.95000e-01       4.02179e-07       2.67814e-08       1.27450e-14       3.64185e-10       4.85948e-01       8.41694e-02       4.85948e-01      
 5.04000e-01       4.45542e-07       3.05950e-08       1.29869e-14       4.00996e-10       4.85948e-01       8.82357e-02       4.85948e-01      
 5.13000e-01       4.91874e-07       3.48122e-08       1.32153e-14       4.39857e-10       4.85948e-01       9.24720e-02       4.85948e-01      
 5.22000e-01       5.41188e-07       3.94599e-08       1.34305e-14       4.80782e-10       4.85948e-01       9.68754e-02       4.85948e-01      
 5.31000e-01       5.93470e-07       4.45650e-08       1.36327e-14       5.23782e-10       4.85948e-01       1.01443e-01       4.85948e-01      
 5.40000e-01       6.48675e-07       5.01538e-08       1.38225e-14       5.68859e-10       4.85948e-01       1.06171e-01       4.85948e-01      
 5.49000e-01       7.06732e-07       5.62524e-08       1.40004e-14       6.16014e-10       4.85948e-01       1.11055e-01       4.85948e-01      
 5.58000e-01       7.67543e-07       6.28860e-08       1.41668e-14       6.65239e-10       4.85948e-01       1.16092e-01       4.85948e-01      
 5.67000e-01       8.30989e-07       7.00790e-08       1.43224e-14       7.16524e-10       4.85948e-01       1.21275e-01       4.85948e-01      
 5.76000e-01       8.96935e-07       7.78543e-08       1.44678e-14       7.69851e-10       4.85948e-01       1.26600e-01       4.85948e-01      
 5.85000e-01       9.65229e-07       8.62339e-08       1.46035e-14       8.25199e-10       4.85948e-01       1.32062e-01       4.85948e-01      
 5.94000e-01       1.03571e-06       9.52382e-08       1.47301e-14       8.82542e-10       4.85948e-01       1.37654e-01       4.85948e-01      
 6.03000e-01       1.10821e-06       1.04886e-07       1.48482e-14       9.41854e-10       4.85948e-01       1.43370e-01       4.85948e-01      
 6.12000e-01       1.18255e-06       1.15195e-07       1.49583e-14       1.00310e-09       4.85948e-01       1.49205e-01       4.85948e-01      
 6.21000e-01       1.25857e-06       1.26180e-07       1.50611e-14       1.06625e-09       4.85948e-01       1.55153e-01       4.85948e-01      
 6.30000e-01       1.33610e-06       1.37857e-07       1.51570e-14       1.13127e-09       4.85948e-01       1.61206e-01       4.85948e-01      
 6.39000e-01       1.41496e-06       1.50237e-07       1.52465e-14       1.19813e-09       4.85948e-01       1.67361e-01       4.85948e-01      
 6.48000e-01       1.49502e-06       1.63333e-07       1.53300e-14       1.26679e-09       4.85948e-01       1.73610e-01       4.85948e-01      
 6.57000e-01       1.57610e-06       1.77154e-07       1.54081e-14       1.33721e-09       4.85948e-01       1.79948e-01       4.85948e-01      
 6.66000e-01       1.65809e-06       1.91708e-07       1.54811e-14       1.40937e-09       4.85948e-01       1.86371e-01       4.85948e-01      
 6.75000e-01       1.74085e-06       2.07005e-07       1.55494e-14       1.48322e-09       4.85948e-01       1.92872e-01       4.85948e-01      
 6.84000e-01       1.82425e-06       2.23048e-07       1.56133e-14       1.55874e-09       4.85948e-01       1.99447e-01       4.85948e-01      
 6.93000e-01       1.90819e-06       2.39845e-07       1.56733e-14       1.63591e-09       4.85948e-01       2.06091e-01       4.85948e-01      
 7.02000e-01       1.99257e-06       2.57400e-07       1.57295e-14       1.71468e-09       4.85948e-01       2.12800e-01       4.85948e-01      
 7.11000e-01       2.07729e-06       2.75715e-07       1.57824e-14       1.79504e-09       4.85948e-01       2.19571e-01       4.85948e-01      
 7.20000e-01       2.16229e-06       2.94794e-07       1.58321e-14       1.87696e-09       4.85948e-01       2.26398e-01       4.85948e-01      
 7.29000e-01       2.24747e-06       3.14639e-07       1.58788e-14       1.96042e-09       4.85948e-01       2.33280e-01       4.85948e-01      
 7.38000e-01       2.33279e-06       3.35251e-07       1.59230e-14       2.04540e-09       4.85948e-01       2.40212e-01       4.85948e-01      
 7.47000e-01       2.41818e-06       3.56631e-07       1.59646e-14       2.13188e-09       4.85948e-01       2.47191e-01       4.85948e-01      
 7.56000e-01       2.50358e-06       3.78780e-07       1.60040e-14       2.21985e-09       4.85948e-01       2.54215e-01       4.85948e-01      
 7.65000e-01       2.58897e-06       4.01697e-07       1.60412e-14       2.30930e-09       4.85948e-01       2.61281e-01       4.85948e-01      
 7.74000e-01       2.67428e-06       4.25383e-07       1.60765e-14       2.40020e-09       4.85948e-01       2.68387e-01       4.85948e-01      
 7.83000e-01       2.75949e-06       4.49835e-07       1.61100e-14       2.49257e-09       4.85948e-01       2.75531e-01       4.85948e-01      
 7.92000e-01       2.84457e-06       4.75054e-07       1.61419e-14       2.58637e-09       4.85948e-01       2.82711e-01       4.85948e-01      
 8.01000e-01       2.92949e-06       5.01038e-07       1.61721e-14       2.68162e-09       4.85948e-01       2.89924e-01       4.85948e-01      
 8.10000e-01       3.01422e-06       5.27785e-07       1.62010e-14       2.77830e-09       4.85948e-01       2.97170e-01       4.85948e-01      
 8.19000e-01       3.09874e-06       5.55294e-07       1.62285e-14       2.87642e-09       4.85948e-01       3.04447e-01       4.85948e-01      
 8.28000e-01       3.18303e-06       5.83562e-07       1.62548e-14       2.97597e-09       4.85948e-01       3.11754e-01       4.85948e-01      
 8.37000e-01       3.26707e-06       6.12587e-07       1.62800e-14       3.07695e-09       4.85948e-01       3.19089e-01       4.85948e-01      
 8.46000e-01       3.35085e-06       6.42368e-07       1.63041e-14       3.17937e-09       4.85948e-01       3.26451e-01       4.85948e-01      
 8.55000e-01       3.43435e-06       6.72902e-07       1.63272e-14       3.28324e-09       4.85948e-01       3.33840e-01       4.85948e-01      
 8.64000e-01       3.51755e-06       7.04185e-07       1.63494e-14       3.38854e-09       4.85948e-01       3.41254e-01       4.85948e-01      
 8.73000e-01       3.60045e-06       7.36216e-07       1.63707e-14       3.49531e-09       4.85948e-01       3.48693e-01       4.85948e-01      
 8.82000e-01       3.68302e-06       7.68991e-07       1.63912e-14       3.60353e-09       4.85948e-01       3.56156e-01       4.85948e-01      
 8.91000e-01       3.76527e-06       8.02508e-07       1.64110e-14       3.71322e-09       4.85948e-01       3.63642e-01       4.85948e-01      
 9.00000e-01       3.84717e-06       8.36764e-07       1.64300e-14       3.82440e-09       4.85948e-01       3.71150e-01       4.85948e-01      
 9.09000e-01       3.92873e-06       8.71755e-07       1.64484e-14       3.93707e-09       4.85948e-01       3.78681e-01       4.85948e-01      
 9.18000e-01       4.00991e-06       9.07479e-07       1.64662e-14       4.05124e-09       4.85948e-01       3.86234e-01       4.85948e-01      
 9.27000e-01       4.09072e-06       9.43931e-07       1.64834e-14       4.16694e-09       4.85948e-01       3.93808e-01       4.85948e-01      
 9.36000e-01       4.17115e-06       9.81109e-07       1.65000e-14       4.28417e-09       4.85948e-01       4.01403e-01       4.85948e-01      
 9.45000e-01       4.25119e-06       1.01901e-06       1.65162e-14       4.40295e-09       4.85948e-01       4.09018e-01       4.85948e-01      
 9.54000e-01       4.33082e-06       1.05763e-06       1.65318e-14       4.52331e-09       4.85948e-01       4.16654e-01       4.85948e-01      
 9.63000e-01       4.41003e-06       1.09696e-06       1.65470e-14       4.64525e-09       4.85948e-01       4.24310e-01       4.85948e-01      
 9.72000e-01       4.48882e-06       1.13700e-06       1.65618e-14       4.76880e-09       4.85948e-01       4.31986e-01       4.85948e-01      
 9.81000e-01       4.56718e-06       1.17776e-06       1.65761e-14       4.89399e-09       4.85948e-01       4.39682e-01       4.85948e-01      
 9.90000e-01       4.64509e-06       1.21921e-06       1.65900e-14       5.02082e-09       4.85948e-01       4.47397e-01       4.85948e-01      
 9.99000e-01       4.72255e-06       1.26136e-06       1.66036e-14       5.14934e-09       4.85948e-01       4.55132e-01       4.85948e-01      
 1.00800e+00       4.79954e-06       1.30421e-06       1.66169e-14       5.27955e-09       4.85948e-01       4.62886e-01       4.85948e-01      
 1.01700e+00       4.87606e-06       1.34775e-06       1.66298e-14       5.41149e-09       4.85948e-01       4.70659e-01       4.85948e-01      
 1.02600e+00       4.95210e-06       1.39198e-06       1.66423e-14       5.54519e-09       4.85948e-01       4.78451e-01       4.85948e-01      
 1.03500e+00       5.02765e-06       1.43689e-06       1.66546e-14       5.68066e-09       4.85948e-01       4.86263e-01       4.85948e-01      
 1.04400e+00       5.10269e-06       1.48247e-06       1.66666e-14       5.81795e-09       4.85948e-01       4.94093e-01       4.85948e-01      
 1.05300e+00       5.17722e-06       1.52873e-06       1.66783e-14       5.95709e-09       4.85948e-01       5.01943e-01       4.85948e-01      
 1.06200e+00       5.25122e-06       1.57566e-06       1.66898e-14       6.09809e-09       4.85948e-01       5.09811e-01       4.85948e-01      
 1.07100e+00       5.32470e-06       1.62325e-06       1.67010e-14       6.24101e-09       4.85948e-01       5.17698e-01       4.85948e-01      
 1.08000e+00       5.39763e-06       1.67150e-06       1.67119e-14       6.38587e-09       4.85948e-01       5.25605e-01       4.85948e-01      
 1.08900e+00       5.47001e-06       1.72040e-06       1.67226e-14       6.53271e-09       4.85948e-01       5.33530e-01       4.85948e-01      
 1.09800e+00       5.54183e-06       1.76995e-06       1.67331e-14       6.68157e-09       4.85948e-01       5.41474e-01       4.85948e-01      
 1.10700e+00       5.61308e-06       1.82015e-06       1.67434e-14       6.83249e-09       4.85948e-01       5.49437e-01       4.85948e-01      
 1.11600e+00       5.68376e-06       1.87099e-06       1.67535e-14       6.98551e-09       4.85948e-01       5.57420e-01       4.85948e-01      
 1.12500e+00       5.75384e-06       1.92245e-06       1.67634e-14       7.14067e-09       4.85948e-01       5.65421e-01       4.85948e-01      
 1.13400e+00       5.82333e-06       1.97455e-06       1.67731e-14       7.29802e-09       4.85948e-01       5.73442e-01       4.85948e-01      
 1.14300e+00       5.89222e-06       2.02727e-06       1.67826e-14       7.45760e-09       4.85948e-01       5.81481e-01       4.85948e-01      
 1.15200e+00       5.96049e-06       2.08061e-06       1.67919e-14       7.61947e-09       4.85948e-01       5.89540e-01       4.85948e-01      
 1.16100e+00       6.02814e-06       2.13456e-06       1.68011e-14       7.78366e-09       4.85948e-01       5.97618e-01       4.85948e-01      
 1.17000e+00       6.09517e-06       2.18911e-06       1.68100e-14       7.95025e-09       4.85948e-01       6.05716e-01       4.85948e-01      
 1.17900e+00       6.16155e-06       2.24426e-06       1.68189e-14       8.11927e-09       4.85948e-01       6.13833e-01       4.85948e-01      
 1.18800e+00       6.22729e-06       2.30001e-06       1.68276e-14       8.29079e-09       4.85948e-01       6.21969e-01       4.85948e-01      
 1.19700e+00       6.29238e-06       2.35635e-06       1.68361e-14       8.46486e-09       4.85948e-01       6.30125e-01       4.85948e-01      
 1.20600e+00       6.35681e-06       2.41327e-06       1.68445e-14       8.64155e-09       4.85948e-01       6.38301e-01       4.85948e-01      
 1.21500e+00       6.42057e-06       2.47077e-06       1.68527e-14       8.82092e-09       4.85948e-01       6.46496e-01       4.85948e-01      
