
dc (V)            getData("M0:gm    getData("M0:id    getData("M0:cg    getData("M0:gd    getData("M0:vt    getData("M0:vd    getData("M0:vt

 0.00000e+00       4.68899e-12       1.64281e-13       8.41262e-16       1.47833e-14       4.98392e-01       4.19074e-02       4.98392e-01      
 9.00000e-03       6.26853e-12       2.12380e-13       8.38279e-16       1.97653e-14       4.98392e-01       4.19074e-02       4.98392e-01      
 1.80000e-02       8.37972e-12       2.77075e-13       8.35409e-16       2.64254e-14       4.98392e-01       4.19075e-02       4.98392e-01      
 2.70000e-02       1.12013e-11       3.63912e-13       8.32659e-16       3.53283e-14       4.98392e-01       4.19075e-02       4.98392e-01      
 3.60000e-02       1.49719e-11       4.80300e-13       8.30035e-16       4.72285e-14       4.98392e-01       4.19076e-02       4.98392e-01      
 4.50000e-02       2.00102e-11       6.36144e-13       8.27547e-16       6.31340e-14       4.98392e-01       4.19077e-02       4.98392e-01      
 5.40000e-02       2.67415e-11       8.44673e-13       8.25206e-16       8.43907e-14       4.98392e-01       4.19078e-02       4.98392e-01      
 6.30000e-02       3.57334e-11       1.12356e-12       8.23028e-16       1.12796e-13       4.98392e-01       4.19079e-02       4.98392e-01      
 7.20000e-02       4.77429e-11       1.49639e-12       8.21031e-16       1.50751e-13       4.98392e-01       4.19081e-02       4.98392e-01      
 8.10000e-02       6.37792e-11       1.99467e-12       8.19240e-16       2.01457e-13       4.98392e-01       4.19084e-02       4.98392e-01      
 9.00000e-02       8.51875e-11       2.66041e-12       8.17682e-16       2.69189e-13       4.98392e-01       4.19088e-02       4.98392e-01      
 9.90000e-02       1.13759e-10       3.54966e-12       8.16394e-16       3.59644e-13       4.98392e-01       4.19092e-02       4.98392e-01      
 1.08000e-01       1.51878e-10       4.73714e-12       8.15419e-16       4.80421e-13       4.98392e-01       4.19099e-02       4.98392e-01      
 1.17000e-01       2.02715e-10       6.32242e-12       8.14809e-16       6.41642e-13       4.98392e-01       4.19107e-02       4.98392e-01      
 1.26000e-01       2.70469e-10       8.43802e-12       8.14599e-16       8.56781e-13       4.98392e-01       4.19119e-02       4.98392e-01      
 1.35000e-01       3.60721e-10       1.12602e-11       8.14878e-16       1.14375e-12       4.98392e-01       4.19134e-02       4.98392e-01      
 1.44000e-01       4.80870e-10       1.50233e-11       8.15749e-16       1.52636e-12       4.98392e-01       4.19154e-02       4.98392e-01      
 1.53000e-01       6.40698e-10       2.00385e-11       8.17316e-16       2.03623e-12       4.98392e-01       4.19181e-02       4.98392e-01      
 1.62000e-01       8.53119e-10       2.67186e-11       8.19702e-16       2.71528e-12       4.98392e-01       4.19216e-02       4.98392e-01      
 1.71000e-01       1.13515e-09       3.56102e-11       8.23046e-16       3.61899e-12       4.98392e-01       4.19264e-02       4.98392e-01      
 1.80000e-01       1.50914e-09       4.74361e-11       8.27509e-16       4.82068e-12       4.98392e-01       4.19327e-02       4.98392e-01      
 1.89000e-01       2.00438e-09       6.31505e-11       8.33271e-16       6.41707e-12       4.98392e-01       4.19411e-02       4.98392e-01      
 1.98000e-01       2.65910e-09       8.40095e-11       8.40530e-16       8.53532e-12       4.98392e-01       4.19523e-02       4.98392e-01      
 2.07000e-01       3.52300e-09       1.11663e-10       8.49503e-16       1.13422e-11       4.98392e-01       4.19671e-02       4.98392e-01      
 2.16000e-01       4.66038e-09       1.48273e-10       8.60422e-16       1.50558e-11       4.98392e-01       4.19866e-02       4.98392e-01      
 2.25000e-01       6.15396e-09       1.96657e-10       8.73527e-16       1.99598e-11       4.98392e-01       4.20124e-02       4.98392e-01      
 2.34000e-01       8.10950e-09       2.60480e-10       8.89062e-16       2.64214e-11       4.98392e-01       4.20465e-02       4.98392e-01      
 2.43000e-01       1.06612e-08       3.44483e-10       9.07269e-16       3.49139e-11       4.98392e-01       4.20912e-02       4.98392e-01      
 2.52000e-01       1.39777e-08       4.54764e-10       9.28376e-16       4.60420e-11       4.98392e-01       4.21497e-02       4.98392e-01      
 2.61000e-01       1.82695e-08       5.99123e-10       9.52588e-16       6.05731e-11       4.98392e-01       4.22262e-02       4.98392e-01      
 2.70000e-01       2.37956e-08       7.87470e-10       9.80084e-16       7.94714e-11       4.98392e-01       4.23256e-02       4.98392e-01      
 2.79000e-01       3.08712e-08       1.03229e-09       1.01100e-15       1.03935e-10       4.98392e-01       4.24542e-02       4.98392e-01      
 2.88000e-01       3.98747e-08       1.34919e-09       1.04543e-15       1.35435e-10       4.98392e-01       4.26197e-02       4.98392e-01      
 2.97000e-01       5.12531e-08       1.75750e-09       1.08341e-15       1.75747e-10       4.98392e-01       4.28314e-02       4.98392e-01      
 3.06000e-01       6.55256e-08       2.28086e-09       1.12491e-15       2.26982e-10       4.98392e-01       4.31002e-02       4.98392e-01      
 3.15000e-01       8.32837e-08       2.94797e-09       1.16988e-15       2.91597e-10       4.98392e-01       4.34388e-02       4.98392e-01      
 3.24000e-01       1.05188e-07       3.79311e-09       1.21816e-15       3.72388e-10       4.98392e-01       4.38617e-02       4.98392e-01      
 3.33000e-01       1.31958e-07       4.85683e-09       1.26956e-15       4.72453e-10       4.98392e-01       4.43846e-02       4.98392e-01      
 3.42000e-01       1.64359e-07       6.18635e-09       1.32384e-15       5.95127e-10       4.98392e-01       4.50243e-02       4.98392e-01      
 3.51000e-01       2.03182e-07       7.83593e-09       1.38068e-15       7.43877e-10       4.98392e-01       4.57983e-02       4.98392e-01      
 3.60000e-01       2.49215e-07       9.86694e-09       1.43976e-15       9.22178e-10       4.98392e-01       4.67234e-02       4.98392e-01      
 3.69000e-01       3.03220e-07       1.23478e-08       1.50069e-15       1.13336e-09       4.98392e-01       4.78156e-02       4.98392e-01      
 3.78000e-01       3.65901e-07       1.53534e-08       1.56307e-15       1.38048e-09       4.98392e-01       4.90891e-02       4.98392e-01      
 3.87000e-01       4.37889e-07       1.89649e-08       1.62649e-15       1.66616e-09       4.98392e-01       5.05553e-02       4.98392e-01      
 3.96000e-01       5.19727e-07       2.32684e-08       1.69052e-15       1.99255e-09       4.98392e-01       5.22228e-02       4.98392e-01      
 4.05000e-01       6.11879e-07       2.83549e-08       1.75474e-15       2.36125e-09       4.98392e-01       5.40973e-02       4.98392e-01      
 4.14000e-01       7.14750e-07       3.43191e-08       1.81875e-15       2.77334e-09       4.98392e-01       5.61814e-02       4.98392e-01      
 4.23000e-01       8.28717e-07       4.12591e-08       1.88217e-15       3.22944e-09       4.98392e-01       5.84751e-02       4.98392e-01      
 4.32000e-01       9.54168e-07       4.92766e-08       1.94464e-15       3.72983e-09       4.98392e-01       6.09768e-02       4.98392e-01      
 4.41000e-01       1.09153e-06       5.84767e-08       2.00584e-15       4.27453e-09       4.98392e-01       6.36833e-02       4.98392e-01      
 4.50000e-01       1.24128e-06       6.89690e-08       2.06550e-15       4.86342e-09       4.98392e-01       6.65907e-02       4.98392e-01      
 4.59000e-01       1.40398e-06       8.08672e-08       2.12336e-15       5.49634e-09       4.98392e-01       6.96951e-02       4.98392e-01      
 4.68000e-01       1.58022e-06       9.42907e-08       2.17924e-15       6.17315e-09       4.98392e-01       7.29924e-02       4.98392e-01      
 4.77000e-01       1.77061e-06       1.09364e-07       2.23298e-15       6.89374e-09       4.98392e-01       7.64787e-02       4.98392e-01      
 4.86000e-01       1.97577e-06       1.26217e-07       2.28445e-15       7.65810e-09       4.98392e-01       8.01508e-02       4.98392e-01      
 4.95000e-01       2.19624e-06       1.44986e-07       2.33358e-15       8.46628e-09       4.98392e-01       8.40055e-02       4.98392e-01      
 5.04000e-01       2.43251e-06       1.65810e-07       2.38033e-15       9.31834e-09       4.98392e-01       8.80397e-02       4.98392e-01      
 5.13000e-01       2.68490e-06       1.88833e-07       2.42467e-15       1.02144e-08       4.98392e-01       9.22506e-02       4.98392e-01      
 5.22000e-01       2.95364e-06       2.14202e-07       2.46662e-15       1.11545e-08       4.98392e-01       9.66350e-02       4.98392e-01      
 5.31000e-01       3.23877e-06       2.42064e-07       2.50621e-15       1.21388e-08       4.98392e-01       1.01190e-01       4.98392e-01      
 5.40000e-01       3.54017e-06       2.72565e-07       2.54349e-15       1.31672e-08       4.98392e-01       1.05911e-01       4.98392e-01      
 5.49000e-01       3.85754e-06       3.05852e-07       2.57854e-15       1.42396e-08       4.98392e-01       1.10795e-01       4.98392e-01      
 5.58000e-01       4.19044e-06       3.42065e-07       2.61144e-15       1.53558e-08       4.98392e-01       1.15837e-01       4.98392e-01      
 5.67000e-01       4.53828e-06       3.81343e-07       2.64227e-15       1.65155e-08       4.98392e-01       1.21032e-01       4.98392e-01      
 5.76000e-01       4.90034e-06       4.23816e-07       2.67113e-15       1.77183e-08       4.98392e-01       1.26375e-01       4.98392e-01      
 5.85000e-01       5.27578e-06       4.69609e-07       2.69813e-15       1.89637e-08       4.98392e-01       1.31860e-01       4.98392e-01      
 5.94000e-01       5.66369e-06       5.18838e-07       2.72336e-15       2.02512e-08       4.98392e-01       1.37482e-01       4.98392e-01      
 6.03000e-01       6.06309e-06       5.71610e-07       2.74692e-15       2.15801e-08       4.98392e-01       1.43234e-01       4.98392e-01      
 6.12000e-01       6.47298e-06       6.28026e-07       2.76893e-15       2.29497e-08       4.98392e-01       1.49109e-01       4.98392e-01      
 6.21000e-01       6.89230e-06       6.88173e-07       2.78947e-15       2.43591e-08       4.98392e-01       1.55101e-01       4.98392e-01      
 6.30000e-01       7.32004e-06       7.52133e-07       2.80865e-15       2.58076e-08       4.98392e-01       1.61204e-01       4.98392e-01      
 6.39000e-01       7.75516e-06       8.19976e-07       2.82656e-15       2.72943e-08       4.98392e-01       1.67411e-01       4.98392e-01      
 6.48000e-01       8.19669e-06       8.91765e-07       2.84328e-15       2.88184e-08       4.98392e-01       1.73715e-01       4.98392e-01      
 6.57000e-01       8.64368e-06       9.67553e-07       2.85890e-15       3.03790e-08       4.98392e-01       1.80111e-01       4.98392e-01      
 6.66000e-01       9.09523e-06       1.04738e-06       2.87350e-15       3.19752e-08       4.98392e-01       1.86592e-01       4.98392e-01      
 6.75000e-01       9.55051e-06       1.13130e-06       2.88716e-15       3.36063e-08       4.98392e-01       1.93153e-01       4.98392e-01      
 6.84000e-01       1.00087e-05       1.21932e-06       2.89994e-15       3.52713e-08       4.98392e-01       1.99787e-01       4.98392e-01      
 6.93000e-01       1.04692e-05       1.31148e-06       2.91191e-15       3.69696e-08       4.98392e-01       2.06490e-01       4.98392e-01      
 7.02000e-01       1.09312e-05       1.40779e-06       2.92314e-15       3.87003e-08       4.98392e-01       2.13257e-01       4.98392e-01      
 7.11000e-01       1.13942e-05       1.50826e-06       2.93367e-15       4.04628e-08       4.98392e-01       2.20082e-01       4.98392e-01      
 7.20000e-01       1.18576e-05       1.61290e-06       2.94357e-15       4.22563e-08       4.98392e-01       2.26962e-01       4.98392e-01      
 7.29000e-01       1.23210e-05       1.72171e-06       2.95287e-15       4.40803e-08       4.98392e-01       2.33892e-01       4.98392e-01      
 7.38000e-01       1.27839e-05       1.83469e-06       2.96164e-15       4.59342e-08       4.98392e-01       2.40869e-01       4.98392e-01      
 7.47000e-01       1.32460e-05       1.95183e-06       2.96989e-15       4.78175e-08       4.98392e-01       2.47888e-01       4.98392e-01      
 7.56000e-01       1.37068e-05       2.07312e-06       2.97769e-15       4.97296e-08       4.98392e-01       2.54947e-01       4.98392e-01      
 7.65000e-01       1.41662e-05       2.19856e-06       2.98505e-15       5.16701e-08       4.98392e-01       2.62042e-01       4.98392e-01      
 7.74000e-01       1.46239e-05       2.32812e-06       2.99202e-15       5.36385e-08       4.98392e-01       2.69171e-01       4.98392e-01      
 7.83000e-01       1.50795e-05       2.46179e-06       2.99863e-15       5.56347e-08       4.98392e-01       2.76332e-01       4.98392e-01      
 7.92000e-01       1.55330e-05       2.59955e-06       3.00489e-15       5.76581e-08       4.98392e-01       2.83520e-01       4.98392e-01      
 8.01000e-01       1.59842e-05       2.74138e-06       3.01084e-15       5.97086e-08       4.98392e-01       2.90736e-01       4.98392e-01      
 8.10000e-01       1.64328e-05       2.88726e-06       3.01650e-15       6.17858e-08       4.98392e-01       2.97976e-01       4.98392e-01      
 8.19000e-01       1.68789e-05       3.03717e-06       3.02190e-15       6.38897e-08       4.98392e-01       3.05239e-01       4.98392e-01      
 8.28000e-01       1.73222e-05       3.19107e-06       3.02704e-15       6.60200e-08       4.98392e-01       3.12523e-01       4.98392e-01      
 8.37000e-01       1.77626e-05       3.34896e-06       3.03195e-15       6.81765e-08       4.98392e-01       3.19827e-01       4.98392e-01      
 8.46000e-01       1.82002e-05       3.51079e-06       3.03665e-15       7.03593e-08       4.98392e-01       3.27149e-01       4.98392e-01      
 8.55000e-01       1.86347e-05       3.67655e-06       3.04114e-15       7.25682e-08       4.98392e-01       3.34489e-01       4.98392e-01      
 8.64000e-01       1.90662e-05       3.84620e-06       3.04546e-15       7.48031e-08       4.98392e-01       3.41844e-01       4.98392e-01      
 8.73000e-01       1.94946e-05       4.01973e-06       3.04959e-15       7.70641e-08       4.98392e-01       3.49215e-01       4.98392e-01      
 8.82000e-01       1.99198e-05       4.19709e-06       3.05357e-15       7.93512e-08       4.98392e-01       3.56600e-01       4.98392e-01      
 8.91000e-01       2.03417e-05       4.37827e-06       3.05740e-15       8.16643e-08       4.98392e-01       3.63999e-01       4.98392e-01      
 9.00000e-01       2.07604e-05       4.56323e-06       3.06108e-15       8.40037e-08       4.98392e-01       3.71410e-01       4.98392e-01      
 9.09000e-01       2.11758e-05       4.75194e-06       3.06463e-15       8.63693e-08       4.98392e-01       3.78834e-01       4.98392e-01      
 9.18000e-01       2.15879e-05       4.94437e-06       3.06807e-15       8.87613e-08       4.98392e-01       3.86269e-01       4.98392e-01      
 9.27000e-01       2.19965e-05       5.14050e-06       3.07138e-15       9.11798e-08       4.98392e-01       3.93715e-01       4.98392e-01      
 9.36000e-01       2.24018e-05       5.34029e-06       3.07459e-15       9.36250e-08       4.98392e-01       4.01172e-01       4.98392e-01      
 9.45000e-01       2.28036e-05       5.54371e-06       3.07769e-15       9.60970e-08       4.98392e-01       4.08639e-01       4.98392e-01      
 9.54000e-01       2.32020e-05       5.75073e-06       3.08070e-15       9.85961e-08       4.98392e-01       4.16117e-01       4.98392e-01      
 9.63000e-01       2.35969e-05       5.96133e-06       3.08362e-15       1.01122e-07       4.98392e-01       4.23604e-01       4.98392e-01      
 9.72000e-01       2.39882e-05       6.17545e-06       3.08645e-15       1.03676e-07       4.98392e-01       4.31100e-01       4.98392e-01      
 9.81000e-01       2.43760e-05       6.39309e-06       3.08920e-15       1.06258e-07       4.98392e-01       4.38606e-01       4.98392e-01      
 9.90000e-01       2.47602e-05       6.61420e-06       3.09188e-15       1.08867e-07       4.98392e-01       4.46120e-01       4.98392e-01      
 9.99000e-01       2.51407e-05       6.83875e-06       3.09448e-15       1.11505e-07       4.98392e-01       4.53644e-01       4.98392e-01      
 1.00800e+00       2.55177e-05       7.06671e-06       3.09702e-15       1.14172e-07       4.98392e-01       4.61176e-01       4.98392e-01      
 1.01700e+00       2.58910e-05       7.29804e-06       3.09949e-15       1.16867e-07       4.98392e-01       4.68717e-01       4.98392e-01      
 1.02600e+00       2.62605e-05       7.53272e-06       3.10191e-15       1.19592e-07       4.98392e-01       4.76267e-01       4.98392e-01      
 1.03500e+00       2.66264e-05       7.77071e-06       3.10426e-15       1.22346e-07       4.98392e-01       4.83825e-01       4.98392e-01      
 1.04400e+00       2.69885e-05       8.01197e-06       3.10656e-15       1.25131e-07       4.98392e-01       4.91392e-01       4.98392e-01      
 1.05300e+00       2.73469e-05       8.25648e-06       3.10880e-15       1.27946e-07       4.98392e-01       4.98967e-01       4.98392e-01      
 1.06200e+00       2.77015e-05       8.50419e-06       3.11100e-15       1.30791e-07       4.98392e-01       5.06551e-01       4.98392e-01      
 1.07100e+00       2.80522e-05       8.75508e-06       3.11314e-15       1.33668e-07       4.98392e-01       5.14143e-01       4.98392e-01      
 1.08000e+00       2.83991e-05       9.00910e-06       3.11524e-15       1.36577e-07       4.98392e-01       5.21743e-01       4.98392e-01      
 1.08900e+00       2.87421e-05       9.26623e-06       3.11730e-15       1.39518e-07       4.98392e-01       5.29353e-01       4.98392e-01      
 1.09800e+00       2.90813e-05       9.52643e-06       3.11932e-15       1.42492e-07       4.98392e-01       5.36970e-01       4.98392e-01      
 1.10700e+00       2.94165e-05       9.78967e-06       3.12129e-15       1.45500e-07       4.98392e-01       5.44597e-01       4.98392e-01      
 1.11600e+00       2.97478e-05       1.00559e-05       3.12323e-15       1.48541e-07       4.98392e-01       5.52232e-01       4.98392e-01      
 1.12500e+00       3.00752e-05       1.03251e-05       3.12513e-15       1.51616e-07       4.98392e-01       5.59876e-01       4.98392e-01      
 1.13400e+00       3.03986e-05       1.05972e-05       3.12699e-15       1.54727e-07       4.98392e-01       5.67529e-01       4.98392e-01      
 1.14300e+00       3.07179e-05       1.08723e-05       3.12882e-15       1.57873e-07       4.98392e-01       5.75191e-01       4.98392e-01      
 1.15200e+00       3.10333e-05       1.11501e-05       3.13062e-15       1.61055e-07       4.98392e-01       5.82861e-01       4.98392e-01      
 1.16100e+00       3.13447e-05       1.14308e-05       3.13239e-15       1.64274e-07       4.98392e-01       5.90541e-01       4.98392e-01      
 1.17000e+00       3.16520e-05       1.17143e-05       3.13412e-15       1.67531e-07       4.98392e-01       5.98230e-01       4.98392e-01      
 1.17900e+00       3.19552e-05       1.20005e-05       3.13583e-15       1.70826e-07       4.98392e-01       6.05929e-01       4.98392e-01      
 1.18800e+00       3.22544e-05       1.22895e-05       3.13751e-15       1.74160e-07       4.98392e-01       6.13637e-01       4.98392e-01      
 1.19700e+00       3.25495e-05       1.25811e-05       3.13916e-15       1.77533e-07       4.98392e-01       6.21355e-01       4.98392e-01      
 1.20600e+00       3.28405e-05       1.28753e-05       3.14079e-15       1.80948e-07       4.98392e-01       6.29082e-01       4.98392e-01      
 1.21500e+00       3.31274e-05       1.31722e-05       3.14239e-15       1.84403e-07       4.98392e-01       6.36819e-01       4.98392e-01      
