
dc (V)            getData("M0:gm    getData("M0:id    getData("M0:cg    getData("M0:gd    getData("M0:vt    getData("M0:vd    getData("M0:vt

 0.00000e+00       2.00827e-12       8.07081e-14       1.78648e-15       3.12787e-15       4.90526e-01       4.01424e-02       4.90526e-01      
 9.00000e-03       2.69060e-12       1.00823e-13       1.77946e-15       4.19110e-15       4.90526e-01       4.01424e-02       4.90526e-01      
 1.80000e-02       3.60457e-12       1.28169e-13       1.77273e-15       5.61554e-15       4.90526e-01       4.01425e-02       4.90526e-01      
 2.70000e-02       4.82869e-12       1.65161e-13       1.76631e-15       7.52378e-15       4.90526e-01       4.01425e-02       4.90526e-01      
 3.60000e-02       6.46805e-12       2.15031e-13       1.76020e-15       1.00800e-14       4.90526e-01       4.01426e-02       4.90526e-01      
 4.50000e-02       8.66320e-12       2.82114e-13       1.75445e-15       1.35038e-14       4.90526e-01       4.01427e-02       4.90526e-01      
 5.40000e-02       1.16022e-11       3.72213e-13       1.74908e-15       1.80894e-14       4.90526e-01       4.01428e-02       4.90526e-01      
 6.30000e-02       1.55363e-11       4.93095e-13       1.74414e-15       2.42302e-14       4.90526e-01       4.01430e-02       4.90526e-01      
 7.20000e-02       2.08016e-11       6.55154e-13       1.73967e-15       3.24526e-14       4.90526e-01       4.01432e-02       4.90526e-01      
 8.10000e-02       2.78467e-11       8.72293e-13       1.73574e-15       4.34606e-14       4.90526e-01       4.01435e-02       4.90526e-01      
 9.00000e-02       3.72709e-11       1.16310e-12       1.73243e-15       5.81951e-14       4.90526e-01       4.01439e-02       4.90526e-01      
 9.90000e-02       4.98732e-11       1.55242e-12       1.72984e-15       7.79137e-14       4.90526e-01       4.01445e-02       4.90526e-01      
 1.08000e-01       6.67194e-11       2.07343e-12       1.72808e-15       1.04295e-13       4.90526e-01       4.01452e-02       4.90526e-01      
 1.17000e-01       8.92285e-11       2.77042e-12       1.72729e-15       1.39582e-13       4.90526e-01       4.01462e-02       4.90526e-01      
 1.26000e-01       1.19285e-10       3.70246e-12       1.72759e-15       1.86761e-13       4.90526e-01       4.01475e-02       4.90526e-01      
 1.35000e-01       1.59391e-10       4.94823e-12       1.72919e-15       2.49814e-13       4.90526e-01       4.01492e-02       4.90526e-01      
 1.44000e-01       2.12872e-10       6.61249e-12       1.73237e-15       3.34037e-13       4.90526e-01       4.01516e-02       4.90526e-01      
 1.53000e-01       2.84128e-10       8.83456e-12       1.73741e-15       4.46474e-13       4.90526e-01       4.01547e-02       4.90526e-01      
 1.62000e-01       3.78973e-10       1.17994e-11       1.74463e-15       5.96473e-13       4.90526e-01       4.01589e-02       4.90526e-01      
 1.71000e-01       5.05066e-10       1.57524e-11       1.75439e-15       7.96421e-13       4.90526e-01       4.01645e-02       4.90526e-01      
 1.80000e-01       6.72476e-10       2.10181e-11       1.76711e-15       1.06270e-12       4.90526e-01       4.01719e-02       4.90526e-01      
 1.89000e-01       8.94387e-10       2.80252e-11       1.78326e-15       1.41692e-12       4.90526e-01       4.01817e-02       4.90526e-01      
 1.98000e-01       1.18800e-09       3.73386e-11       1.80335e-15       1.88751e-12       4.90526e-01       4.01948e-02       4.90526e-01      
 2.07000e-01       1.57564e-09       4.96999e-11       1.82791e-15       2.51174e-12       4.90526e-01       4.02122e-02       4.90526e-01      
 2.16000e-01       2.08616e-09       6.60803e-11       1.85753e-15       3.33828e-12       4.90526e-01       4.02351e-02       4.90526e-01      
 2.25000e-01       2.75659e-09       8.77460e-11       1.89278e-15       4.43037e-12       4.90526e-01       4.02655e-02       4.90526e-01      
 2.34000e-01       3.63412e-09       1.16341e-10       1.93425e-15       5.86976e-12       4.90526e-01       4.03055e-02       4.90526e-01      
 2.43000e-01       4.77840e-09       1.53987e-10       1.98249e-15       7.76140e-12       4.90526e-01       4.03580e-02       4.90526e-01      
 2.52000e-01       6.26418e-09       2.03412e-10       2.03803e-15       1.02390e-11       4.90526e-01       4.04268e-02       4.90526e-01      
 2.61000e-01       8.18409e-09       2.68092e-10       2.10129e-15       1.34715e-11       4.90526e-01       4.05165e-02       4.90526e-01      
 2.70000e-01       1.06516e-08       3.52430e-10       2.17265e-15       1.76698e-11       4.90526e-01       4.06330e-02       4.90526e-01      
 2.79000e-01       1.38040e-08       4.61957e-10       2.25233e-15       2.30942e-11       4.90526e-01       4.07832e-02       4.90526e-01      
 2.88000e-01       1.78049e-08       6.03553e-10       2.34047e-15       3.00615e-11       4.90526e-01       4.09760e-02       4.90526e-01      
 2.97000e-01       2.28462e-08       7.85702e-10       2.43705e-15       3.89506e-11       4.90526e-01       4.12216e-02       4.90526e-01      
 3.06000e-01       2.91492e-08       1.01874e-09       2.54191e-15       5.02065e-11       4.90526e-01       4.15320e-02       4.90526e-01      
 3.15000e-01       3.69645e-08       1.31515e-09       2.65475e-15       6.43406e-11       4.90526e-01       4.19209e-02       4.90526e-01      
 3.24000e-01       4.65693e-08       1.68976e-09       2.77513e-15       8.19259e-11       4.90526e-01       4.24032e-02       4.90526e-01      
 3.33000e-01       5.82640e-08       2.16002e-09       2.90246e-15       1.03588e-10       4.90526e-01       4.29953e-02       4.90526e-01      
 3.42000e-01       7.23651e-08       2.74617e-09       3.03605e-15       1.29986e-10       4.90526e-01       4.37138e-02       4.90526e-01      
 3.51000e-01       8.91965e-08       3.47133e-09       3.17509e-15       1.61796e-10       4.90526e-01       4.45753e-02       4.90526e-01      
 3.60000e-01       1.09079e-07       4.36153e-09       3.31868e-15       1.99679e-10       4.90526e-01       4.55955e-02       4.90526e-01      
 3.69000e-01       1.32320e-07       5.44564e-09       3.46587e-15       2.44259e-10       4.90526e-01       4.67883e-02       4.90526e-01      
 3.78000e-01       1.59201e-07       6.75518e-09       3.61566e-15       2.96097e-10       4.90526e-01       4.81652e-02       4.90526e-01      
 3.87000e-01       1.89978e-07       8.32411e-09       3.76703e-15       3.55671e-10       4.90526e-01       4.97352e-02       4.90526e-01      
 3.96000e-01       2.24874e-07       1.01885e-08       3.91897e-15       4.23367e-10       4.90526e-01       5.15040e-02       4.90526e-01      
 4.05000e-01       2.64092e-07       1.23864e-08       4.07051e-15       4.99479e-10       4.90526e-01       5.34748e-02       4.90526e-01      
 4.14000e-01       3.07820e-07       1.49575e-08       4.22072e-15       5.84216e-10       4.90526e-01       5.56481e-02       4.90526e-01      
 4.23000e-01       3.56249e-07       1.79433e-08       4.36874e-15       6.77717e-10       4.90526e-01       5.80227e-02       4.90526e-01      
 4.32000e-01       4.09584e-07       2.13871e-08       4.51380e-15       7.80073e-10       4.90526e-01       6.05960e-02       4.90526e-01      
 4.41000e-01       4.68051e-07       2.53339e-08       4.65521e-15       8.91339e-10       4.90526e-01       6.33649e-02       4.90526e-01      
 4.50000e-01       5.31903e-07       2.98311e-08       4.79240e-15       1.01156e-09       4.90526e-01       6.63256e-02       4.90526e-01      
 4.59000e-01       6.01409e-07       3.49284e-08       4.92487e-15       1.14078e-09       4.90526e-01       6.94749e-02       4.90526e-01      
 4.68000e-01       6.76852e-07       4.06779e-08       5.05224e-15       1.27903e-09       4.90526e-01       7.28095e-02       4.90526e-01      
 4.77000e-01       7.58511e-07       4.71344e-08       5.17424e-15       1.42638e-09       4.90526e-01       7.63266e-02       4.90526e-01      
 4.86000e-01       8.46645e-07       5.43549e-08       5.29065e-15       1.58289e-09       4.90526e-01       8.00235e-02       4.90526e-01      
 4.95000e-01       9.41480e-07       6.23988e-08       5.40137e-15       1.74862e-09       4.90526e-01       8.38978e-02       4.90526e-01      
 5.04000e-01       1.04320e-06       7.13272e-08       5.50637e-15       1.92364e-09       4.90526e-01       8.79471e-02       4.90526e-01      
 5.13000e-01       1.15191e-06       8.12027e-08       5.60565e-15       2.10800e-09       4.90526e-01       9.21689e-02       4.90526e-01      
 5.22000e-01       1.26768e-06       9.20885e-08       5.69932e-15       2.30176e-09       4.90526e-01       9.65604e-02       4.90526e-01      
 5.31000e-01       1.39050e-06       1.04048e-07       5.78749e-15       2.50494e-09       4.90526e-01       1.01118e-01       4.90526e-01      
 5.40000e-01       1.52027e-06       1.17145e-07       5.87033e-15       2.71756e-09       4.90526e-01       1.05839e-01       4.90526e-01      
 5.49000e-01       1.65685e-06       1.31440e-07       5.94804e-15       2.93960e-09       4.90526e-01       1.10720e-01       4.90526e-01      
 5.58000e-01       1.80002e-06       1.46995e-07       6.02083e-15       3.17103e-09       4.90526e-01       1.15754e-01       4.90526e-01      
 5.67000e-01       1.94952e-06       1.63867e-07       6.08893e-15       3.41181e-09       4.90526e-01       1.20939e-01       4.90526e-01      
 5.76000e-01       2.10502e-06       1.82111e-07       6.15259e-15       3.66183e-09       4.90526e-01       1.26268e-01       4.90526e-01      
 5.85000e-01       2.26617e-06       2.01782e-07       6.21206e-15       3.92102e-09       4.90526e-01       1.31736e-01       4.90526e-01      
 5.94000e-01       2.43258e-06       2.22926e-07       6.26757e-15       4.18925e-09       4.90526e-01       1.37337e-01       4.90526e-01      
 6.03000e-01       2.60386e-06       2.45591e-07       6.31937e-15       4.46639e-09       4.90526e-01       1.43066e-01       4.90526e-01      
 6.12000e-01       2.77957e-06       2.69817e-07       6.36771e-15       4.75231e-09       4.90526e-01       1.48915e-01       4.90526e-01      
 6.21000e-01       2.95932e-06       2.95643e-07       6.41280e-15       5.04684e-09       4.90526e-01       1.54879e-01       4.90526e-01      
 6.30000e-01       3.14267e-06       3.23103e-07       6.45488e-15       5.34982e-09       4.90526e-01       1.60951e-01       4.90526e-01      
 6.39000e-01       3.32923e-06       3.52229e-07       6.49416e-15       5.66111e-09       4.90526e-01       1.67126e-01       4.90526e-01      
 6.48000e-01       3.51861e-06       3.83046e-07       6.53083e-15       5.98052e-09       4.90526e-01       1.73398e-01       4.90526e-01      
 6.57000e-01       3.71044e-06       4.15579e-07       6.56509e-15       6.30791e-09       4.90526e-01       1.79760e-01       4.90526e-01      
 6.66000e-01       3.90437e-06       4.49848e-07       6.59712e-15       6.64310e-09       4.90526e-01       1.86207e-01       4.90526e-01      
 6.75000e-01       4.10007e-06       4.85870e-07       6.62708e-15       6.98595e-09       4.90526e-01       1.92734e-01       4.90526e-01      
 6.84000e-01       4.29725e-06       5.23660e-07       6.65512e-15       7.33630e-09       4.90526e-01       1.99336e-01       4.90526e-01      
 6.93000e-01       4.49562e-06       5.63231e-07       6.68141e-15       7.69401e-09       4.90526e-01       2.06007e-01       4.90526e-01      
 7.02000e-01       4.69494e-06       6.04591e-07       6.70606e-15       8.05895e-09       4.90526e-01       2.12744e-01       4.90526e-01      
 7.11000e-01       4.89498e-06       6.47748e-07       6.72921e-15       8.43099e-09       4.90526e-01       2.19541e-01       4.90526e-01      
 7.20000e-01       5.09553e-06       6.92708e-07       6.75097e-15       8.81002e-09       4.90526e-01       2.26396e-01       4.90526e-01      
 7.29000e-01       5.29641e-06       7.39474e-07       6.77145e-15       9.19592e-09       4.90526e-01       2.33304e-01       4.90526e-01      
 7.38000e-01       5.49746e-06       7.88049e-07       6.79075e-15       9.58860e-09       4.90526e-01       2.40261e-01       4.90526e-01      
 7.47000e-01       5.69852e-06       8.38433e-07       6.80895e-15       9.98797e-09       4.90526e-01       2.47266e-01       4.90526e-01      
 7.56000e-01       5.89947e-06       8.90626e-07       6.82615e-15       1.03940e-08       4.90526e-01       2.54314e-01       4.90526e-01      
 7.65000e-01       6.10020e-06       9.44627e-07       6.84241e-15       1.08065e-08       4.90526e-01       2.61402e-01       4.90526e-01      
 7.74000e-01       6.30059e-06       1.00043e-06       6.85782e-15       1.12255e-08       4.90526e-01       2.68530e-01       4.90526e-01      
 7.83000e-01       6.50057e-06       1.05804e-06       6.87243e-15       1.16509e-08       4.90526e-01       2.75693e-01       4.90526e-01      
 7.92000e-01       6.70005e-06       1.11744e-06       6.88631e-15       1.20827e-08       4.90526e-01       2.82891e-01       4.90526e-01      
 8.01000e-01       6.89896e-06       1.17864e-06       6.89950e-15       1.25209e-08       4.90526e-01       2.90120e-01       4.90526e-01      
 8.10000e-01       7.09725e-06       1.24162e-06       6.91206e-15       1.29653e-08       4.90526e-01       2.97380e-01       4.90526e-01      
 8.19000e-01       7.29485e-06       1.30639e-06       6.92404e-15       1.34161e-08       4.90526e-01       3.04669e-01       4.90526e-01      
 8.28000e-01       7.49172e-06       1.37293e-06       6.93548e-15       1.38732e-08       4.90526e-01       3.11986e-01       4.90526e-01      
 8.37000e-01       7.68781e-06       1.44124e-06       6.94641e-15       1.43365e-08       4.90526e-01       3.19328e-01       4.90526e-01      
 8.46000e-01       7.88309e-06       1.51131e-06       6.95687e-15       1.48061e-08       4.90526e-01       3.26696e-01       4.90526e-01      
 8.55000e-01       8.07752e-06       1.58313e-06       6.96690e-15       1.52821e-08       4.90526e-01       3.34087e-01       4.90526e-01      
 8.64000e-01       8.27106e-06       1.65670e-06       6.97652e-15       1.57643e-08       4.90526e-01       3.41502e-01       4.90526e-01      
 8.73000e-01       8.46370e-06       1.73201e-06       6.98577e-15       1.62528e-08       4.90526e-01       3.48938e-01       4.90526e-01      
 8.82000e-01       8.65539e-06       1.80904e-06       6.99466e-15       1.67478e-08       4.90526e-01       3.56395e-01       4.90526e-01      
 8.91000e-01       8.84612e-06       1.88780e-06       7.00322e-15       1.72490e-08       4.90526e-01       3.63874e-01       4.90526e-01      
 9.00000e-01       9.03585e-06       1.96827e-06       7.01147e-15       1.77567e-08       4.90526e-01       3.71372e-01       4.90526e-01      
 9.09000e-01       9.22457e-06       2.05044e-06       7.01943e-15       1.82709e-08       4.90526e-01       3.78889e-01       4.90526e-01      
 9.18000e-01       9.41226e-06       2.13430e-06       7.02712e-15       1.87916e-08       4.90526e-01       3.86426e-01       4.90526e-01      
 9.27000e-01       9.59888e-06       2.21985e-06       7.03456e-15       1.93189e-08       4.90526e-01       3.93981e-01       4.90526e-01      
 9.36000e-01       9.78443e-06       2.30707e-06       7.04175e-15       1.98527e-08       4.90526e-01       4.01554e-01       4.90526e-01      
 9.45000e-01       9.96887e-06       2.39596e-06       7.04873e-15       2.03933e-08       4.90526e-01       4.09145e-01       4.90526e-01      
 9.54000e-01       1.01522e-05       2.48651e-06       7.05549e-15       2.09406e-08       4.90526e-01       4.16753e-01       4.90526e-01      
 9.63000e-01       1.03344e-05       2.57869e-06       7.06205e-15       2.14947e-08       4.90526e-01       4.24378e-01       4.90526e-01      
 9.72000e-01       1.05154e-05       2.67252e-06       7.06842e-15       2.20557e-08       4.90526e-01       4.32020e-01       4.90526e-01      
 9.81000e-01       1.06952e-05       2.76796e-06       7.07461e-15       2.26238e-08       4.90526e-01       4.39679e-01       4.90526e-01      
 9.90000e-01       1.08738e-05       2.86502e-06       7.08063e-15       2.31988e-08       4.90526e-01       4.47355e-01       4.90526e-01      
 9.99000e-01       1.10512e-05       2.96368e-06       7.08649e-15       2.37811e-08       4.90526e-01       4.55046e-01       4.90526e-01      
 1.00800e+00       1.12274e-05       3.06393e-06       7.09220e-15       2.43706e-08       4.90526e-01       4.62755e-01       4.90526e-01      
 1.01700e+00       1.14023e-05       3.16577e-06       7.09777e-15       2.49674e-08       4.90526e-01       4.70479e-01       4.90526e-01      
 1.02600e+00       1.15759e-05       3.26917e-06       7.10320e-15       2.55717e-08       4.90526e-01       4.78219e-01       4.90526e-01      
 1.03500e+00       1.17482e-05       3.37412e-06       7.10849e-15       2.61836e-08       4.90526e-01       4.85976e-01       4.90526e-01      
 1.04400e+00       1.19192e-05       3.48062e-06       7.11367e-15       2.68031e-08       4.90526e-01       4.93748e-01       4.90526e-01      
 1.05300e+00       1.20888e-05       3.58866e-06       7.11872e-15       2.74305e-08       4.90526e-01       5.01537e-01       4.90526e-01      
 1.06200e+00       1.22571e-05       3.69821e-06       7.12366e-15       2.80658e-08       4.90526e-01       5.09341e-01       4.90526e-01      
 1.07100e+00       1.24240e-05       3.80928e-06       7.12849e-15       2.87091e-08       4.90526e-01       5.17161e-01       4.90526e-01      
 1.08000e+00       1.25895e-05       3.92184e-06       7.13321e-15       2.93607e-08       4.90526e-01       5.24997e-01       4.90526e-01      
 1.08900e+00       1.27536e-05       4.03588e-06       7.13784e-15       3.00205e-08       4.90526e-01       5.32849e-01       4.90526e-01      
 1.09800e+00       1.29162e-05       4.15139e-06       7.14237e-15       3.06889e-08       4.90526e-01       5.40717e-01       4.90526e-01      
 1.10700e+00       1.30774e-05       4.26836e-06       7.14681e-15       3.13659e-08       4.90526e-01       5.48601e-01       4.90526e-01      
 1.11600e+00       1.32371e-05       4.38677e-06       7.15116e-15       3.20517e-08       4.90526e-01       5.56501e-01       4.90526e-01      
 1.12500e+00       1.33953e-05       4.50662e-06       7.15542e-15       3.27465e-08       4.90526e-01       5.64417e-01       4.90526e-01      
 1.13400e+00       1.35521e-05       4.62788e-06       7.15961e-15       3.34503e-08       4.90526e-01       5.72350e-01       4.90526e-01      
 1.14300e+00       1.37072e-05       4.75055e-06       7.16371e-15       3.41635e-08       4.90526e-01       5.80298e-01       4.90526e-01      
 1.15200e+00       1.38609e-05       4.87460e-06       7.16774e-15       3.48862e-08       4.90526e-01       5.88263e-01       4.90526e-01      
 1.16100e+00       1.40130e-05       5.00003e-06       7.17170e-15       3.56186e-08       4.90526e-01       5.96243e-01       4.90526e-01      
 1.17000e+00       1.41635e-05       5.12682e-06       7.17559e-15       3.63609e-08       4.90526e-01       6.04241e-01       4.90526e-01      
 1.17900e+00       1.43124e-05       5.25497e-06       7.17941e-15       3.71133e-08       4.90526e-01       6.12254e-01       4.90526e-01      
 1.18800e+00       1.44597e-05       5.38444e-06       7.18316e-15       3.78759e-08       4.90526e-01       6.20284e-01       4.90526e-01      
 1.19700e+00       1.46054e-05       5.51523e-06       7.18685e-15       3.86492e-08       4.90526e-01       6.28331e-01       4.90526e-01      
 1.20600e+00       1.47495e-05       5.64733e-06       7.19048e-15       3.94331e-08       4.90526e-01       6.36395e-01       4.90526e-01      
 1.21500e+00       1.48920e-05       5.78071e-06       7.19405e-15       4.02281e-08       4.90526e-01       6.44475e-01       4.90526e-01      
