
dc (V)            getData("M0:gm    getData("M0:id    getData("M0:cg    getData("M0:gd    getData("M0:vt    getData("M0:vd    getData("M0:vt

 0.00000e+00       1.86276e-11       6.07878e-13       2.76139e-16       9.68101e-14       5.36784e-01       5.03807e-02       5.36784e-01      
 9.00000e-03       2.47639e-11       8.01088e-13       2.75582e-16       1.28710e-13       5.36784e-01       5.03807e-02       5.36784e-01      
 1.80000e-02       3.29202e-11       1.05833e-12       2.75040e-16       1.71117e-13       5.36784e-01       5.03808e-02       5.36784e-01      
 2.70000e-02       4.37613e-11       1.40063e-12       2.74512e-16       2.27490e-13       5.36784e-01       5.03808e-02       5.36784e-01      
 3.60000e-02       5.81695e-11       1.85595e-12       2.73999e-16       3.02423e-13       5.36784e-01       5.03808e-02       5.36784e-01      
 4.50000e-02       7.73173e-11       2.46144e-12       2.73500e-16       4.02024e-13       5.36784e-01       5.03809e-02       5.36784e-01      
 5.40000e-02       1.02761e-10       3.26647e-12       2.73018e-16       5.34403e-13       5.36784e-01       5.03810e-02       5.36784e-01      
 6.30000e-02       1.36568e-10       4.33659e-12       2.72552e-16       7.10336e-13       5.36784e-01       5.03811e-02       5.36784e-01      
 7.20000e-02       1.81481e-10       5.75890e-12       2.72105e-16       9.44130e-13       5.36784e-01       5.03812e-02       5.36784e-01      
 8.10000e-02       2.41139e-10       7.64903e-12       2.71678e-16       1.25478e-12       5.36784e-01       5.03813e-02       5.36784e-01      
 9.00000e-02       3.20370e-10       1.01605e-11       2.71274e-16       1.66752e-12       5.36784e-01       5.03816e-02       5.36784e-01      
 9.90000e-02       4.25573e-10       1.34970e-11       2.70896e-16       2.21580e-12       5.36784e-01       5.03818e-02       5.36784e-01      
 1.08000e-01       5.65232e-10       1.79290e-11       2.70547e-16       2.94402e-12       5.36784e-01       5.03822e-02       5.36784e-01      
 1.17000e-01       7.50576e-10       2.38149e-11       2.70233e-16       3.91106e-12       5.36784e-01       5.03827e-02       5.36784e-01      
 1.26000e-01       9.96473e-10       3.16300e-11       2.69960e-16       5.19495e-12       5.36784e-01       5.03834e-02       5.36784e-01      
 1.35000e-01       1.32253e-09       4.20040e-11       2.69730e-16       6.89904e-12       5.36784e-01       5.03843e-02       5.36784e-01      
 1.44000e-01       1.75466e-09       5.57700e-11       2.69552e-16       9.16005e-12       5.36784e-01       5.03855e-02       5.36784e-01      
 1.53000e-01       2.32710e-09       7.40305e-11       2.69442e-16       1.21588e-11       5.36784e-01       5.03871e-02       5.36784e-01      
 1.62000e-01       3.08494e-09       9.82429e-11       2.69411e-16       1.61344e-11       5.36784e-01       5.03892e-02       5.36784e-01      
 1.71000e-01       4.08747e-09       1.30332e-10       2.69475e-16       2.14021e-11       5.36784e-01       5.03920e-02       5.36784e-01      
 1.80000e-01       5.41255e-09       1.72836e-10       2.69651e-16       2.83779e-11       5.36784e-01       5.03957e-02       5.36784e-01      
 1.89000e-01       7.16219e-09       2.29099e-10       2.69959e-16       3.76090e-11       5.36784e-01       5.04005e-02       5.36784e-01      
 1.98000e-01       9.46967e-09       3.03519e-10       2.70423e-16       4.98144e-11       5.36784e-01       5.04070e-02       5.36784e-01      
 2.07000e-01       1.25086e-08       4.01866e-10       2.71071e-16       6.59370e-11       5.36784e-01       5.04155e-02       5.36784e-01      
 2.16000e-01       1.65046e-08       5.31702e-10       2.71933e-16       8.72096e-11       5.36784e-01       5.04267e-02       5.36784e-01      
 2.25000e-01       2.17489e-08       7.02902e-10       2.73043e-16       1.15240e-10       5.36784e-01       5.04415e-02       5.36784e-01      
 2.34000e-01       2.86166e-08       9.28327e-10       2.74440e-16       1.52118e-10       5.36784e-01       5.04610e-02       5.36784e-01      
 2.43000e-01       3.75875e-08       1.22467e-09       2.76164e-16       2.00546e-10       5.36784e-01       5.04866e-02       5.36784e-01      
 2.52000e-01       4.92714e-08       1.61352e-09       2.78259e-16       2.64008e-10       5.36784e-01       5.05202e-02       5.36784e-01      
 2.61000e-01       6.44374e-08       2.12263e-09       2.80770e-16       3.46965e-10       5.36784e-01       5.05641e-02       5.36784e-01      
 2.70000e-01       8.40471e-08       2.78754e-09       2.83742e-16       4.55093e-10       5.36784e-01       5.06213e-02       5.36784e-01      
 2.79000e-01       1.09291e-07       3.65345e-09       2.87220e-16       5.95558e-10       5.36784e-01       5.06957e-02       5.36784e-01      
 2.88000e-01       1.41623e-07       4.77743e-09       2.91246e-16       7.77331e-10       5.36784e-01       5.07920e-02       5.36784e-01      
 2.97000e-01       1.82803e-07       6.23102e-09       2.95858e-16       1.01152e-09       5.36784e-01       5.09161e-02       5.36784e-01      
 3.06000e-01       2.34916e-07       8.10302e-09       3.01090e-16       1.31171e-09       5.36784e-01       5.10753e-02       5.36784e-01      
 3.15000e-01       3.00405e-07       1.05026e-08       3.06966e-16       1.69430e-09       5.36784e-01       5.12781e-02       5.36784e-01      
 3.24000e-01       3.82064e-07       1.35627e-08       3.13504e-16       2.17876e-09       5.36784e-01       5.15349e-02       5.36784e-01      
 3.33000e-01       4.83028e-07       1.74426e-08       3.20711e-16       2.78778e-09       5.36784e-01       5.18577e-02       5.36784e-01      
 3.42000e-01       6.06728e-07       2.23316e-08       3.28585e-16       3.54728e-09       5.36784e-01       5.22601e-02       5.36784e-01      
 3.51000e-01       7.56815e-07       2.84506e-08       3.37112e-16       4.48615e-09       5.36784e-01       5.27569e-02       5.36784e-01      
 3.60000e-01       9.37062e-07       3.60543e-08       3.46269e-16       5.63575e-09       5.36784e-01       5.33645e-02       5.36784e-01      
 3.69000e-01       1.15123e-06       4.54313e-08       3.56021e-16       7.02914e-09       5.36784e-01       5.40993e-02       5.36784e-01      
 3.78000e-01       1.40295e-06       5.69036e-08       3.66323e-16       8.70005e-09       5.36784e-01       5.49783e-02       5.36784e-01      
 3.87000e-01       1.69554e-06       7.08245e-08       3.77122e-16       1.06816e-08       5.36784e-01       5.60172e-02       5.36784e-01      
 3.96000e-01       2.03193e-06       8.75756e-08       3.88356e-16       1.30052e-08       5.36784e-01       5.72304e-02       5.36784e-01      
 4.05000e-01       2.41462e-06       1.07563e-07       3.99957e-16       1.56993e-08       5.36784e-01       5.86303e-02       5.36784e-01      
 4.14000e-01       2.84559e-06       1.31213e-07       4.11852e-16       1.87882e-08       5.36784e-01       6.02264e-02       5.36784e-01      
 4.23000e-01       3.32648e-06       1.58967e-07       4.23965e-16       2.22925e-08       5.36784e-01       6.20255e-02       5.36784e-01      
 4.32000e-01       3.85866e-06       1.91282e-07       4.36219e-16       2.62279e-08       5.36784e-01       6.40315e-02       5.36784e-01      
 4.41000e-01       4.44346e-06       2.28625e-07       4.48534e-16       3.06067e-08       5.36784e-01       6.62459e-02       5.36784e-01      
 4.50000e-01       5.08236e-06       2.71476e-07       4.60837e-16       3.54379e-08       5.36784e-01       6.86682e-02       5.36784e-01      
 4.59000e-01       5.77712e-06       3.20330e-07       4.73055e-16       4.07281e-08       5.36784e-01       7.12961e-02       5.36784e-01      
 4.68000e-01       6.52990e-06       3.75700e-07       4.85120e-16       4.64830e-08       5.36784e-01       7.41268e-02       5.36784e-01      
 4.77000e-01       7.34326e-06       4.38118e-07       4.96972e-16       5.27075e-08       5.36784e-01       7.71567e-02       5.36784e-01      
 4.86000e-01       8.22007e-06       5.08143e-07       5.08555e-16       5.94067e-08       5.36784e-01       8.03822e-02       5.36784e-01      
 4.95000e-01       9.16336e-06       5.86360e-07       5.19822e-16       6.65863e-08       5.36784e-01       8.37997e-02       5.36784e-01      
 5.04000e-01       1.01761e-05       6.73379e-07       5.30733e-16       7.42521e-08       5.36784e-01       8.74059e-02       5.36784e-01      
 5.13000e-01       1.12611e-05       7.69841e-07       5.41255e-16       8.24107e-08       5.36784e-01       9.11975e-02       5.36784e-01      
 5.22000e-01       1.24206e-05       8.76403e-07       5.51364e-16       9.10686e-08       5.36784e-01       9.51714e-02       5.36784e-01      
 5.31000e-01       1.36561e-05       9.93746e-07       5.61041e-16       1.00232e-07       5.36784e-01       9.93243e-02       5.36784e-01      
 5.40000e-01       1.49685e-05       1.12256e-06       5.70274e-16       1.09907e-07       5.36784e-01       1.03653e-01       5.36784e-01      
 5.49000e-01       1.63577e-05       1.26353e-06       5.79057e-16       1.20097e-07       5.36784e-01       1.08153e-01       5.36784e-01      
 5.58000e-01       1.78226e-05       1.41735e-06       5.87390e-16       1.30806e-07       5.36784e-01       1.12820e-01       5.36784e-01      
 5.67000e-01       1.93610e-05       1.58469e-06       5.95277e-16       1.42036e-07       5.36784e-01       1.17649e-01       5.36784e-01      
 5.76000e-01       2.09699e-05       1.76619e-06       6.02725e-16       1.53786e-07       5.36784e-01       1.22635e-01       5.36784e-01      
 5.85000e-01       2.26453e-05       1.96249e-06       6.09745e-16       1.66055e-07       5.36784e-01       1.27771e-01       5.36784e-01      
 5.94000e-01       2.43824e-05       2.17414e-06       6.16351e-16       1.78838e-07       5.36784e-01       1.33051e-01       5.36784e-01      
 6.03000e-01       2.61757e-05       2.40168e-06       6.22559e-16       1.92129e-07       5.36784e-01       1.38466e-01       5.36784e-01      
 6.12000e-01       2.80193e-05       2.64560e-06       6.28384e-16       2.05921e-07       5.36784e-01       1.44011e-01       5.36784e-01      
 6.21000e-01       2.99066e-05       2.90631e-06       6.33846e-16       2.20203e-07       5.36784e-01       1.49675e-01       5.36784e-01      
 6.30000e-01       3.18312e-05       3.18419e-06       6.38963e-16       2.34966e-07       5.36784e-01       1.55451e-01       5.36784e-01      
 6.39000e-01       3.37860e-05       3.47952e-06       6.43753e-16       2.50197e-07       5.36784e-01       1.61330e-01       5.36784e-01      
 6.48000e-01       3.57644e-05       3.79256e-06       6.48236e-16       2.65883e-07       5.36784e-01       1.67303e-01       5.36784e-01      
 6.57000e-01       3.77598e-05       4.12348e-06       6.52430e-16       2.82010e-07       5.36784e-01       1.73361e-01       5.36784e-01      
 6.66000e-01       3.97657e-05       4.47241e-06       6.56353e-16       2.98563e-07       5.36784e-01       1.79496e-01       5.36784e-01      
 6.75000e-01       4.17761e-05       4.83942e-06       6.60023e-16       3.15528e-07       5.36784e-01       1.85700e-01       5.36784e-01      
 6.84000e-01       4.37853e-05       5.22452e-06       6.63457e-16       3.32888e-07       5.36784e-01       1.91964e-01       5.36784e-01      
 6.93000e-01       4.57881e-05       5.62768e-06       6.66672e-16       3.50629e-07       5.36784e-01       1.98280e-01       5.36784e-01      
 7.02000e-01       4.77797e-05       6.04881e-06       6.69681e-16       3.68736e-07       5.36784e-01       2.04641e-01       5.36784e-01      
 7.11000e-01       4.97557e-05       6.48780e-06       6.72501e-16       3.87194e-07       5.36784e-01       2.11040e-01       5.36784e-01      
 7.20000e-01       5.17123e-05       6.94448e-06       6.75145e-16       4.05988e-07       5.36784e-01       2.17471e-01       5.36784e-01      
 7.29000e-01       5.36463e-05       7.41867e-06       6.77625e-16       4.25104e-07       5.36784e-01       2.23926e-01       5.36784e-01      
 7.38000e-01       5.55547e-05       7.91014e-06       6.79954e-16       4.44530e-07       5.36784e-01       2.30400e-01       5.36784e-01      
 7.47000e-01       5.74351e-05       8.41867e-06       6.82144e-16       4.64251e-07       5.36784e-01       2.36889e-01       5.36784e-01      
 7.56000e-01       5.92853e-05       8.94398e-06       6.84203e-16       4.84256e-07       5.36784e-01       2.43386e-01       5.36784e-01      
 7.65000e-01       6.11037e-05       9.48580e-06       6.86143e-16       5.04532e-07       5.36784e-01       2.49887e-01       5.36784e-01      
 7.74000e-01       6.28890e-05       1.00438e-05       6.87972e-16       5.25069e-07       5.36784e-01       2.56389e-01       5.36784e-01      
 7.83000e-01       6.46401e-05       1.06178e-05       6.89699e-16       5.45856e-07       5.36784e-01       2.62888e-01       5.36784e-01      
 7.92000e-01       6.63562e-05       1.12073e-05       6.91331e-16       5.66884e-07       5.36784e-01       2.69380e-01       5.36784e-01      
 8.01000e-01       6.80369e-05       1.18121e-05       6.92875e-16       5.88143e-07       5.36784e-01       2.75862e-01       5.36784e-01      
 8.10000e-01       6.96817e-05       1.24319e-05       6.94339e-16       6.09624e-07       5.36784e-01       2.82332e-01       5.36784e-01      
 8.19000e-01       7.12905e-05       1.30663e-05       6.95728e-16       6.31319e-07       5.36784e-01       2.88787e-01       5.36784e-01      
 8.28000e-01       7.28635e-05       1.37151e-05       6.97047e-16       6.53221e-07       5.36784e-01       2.95225e-01       5.36784e-01      
 8.37000e-01       7.44006e-05       1.43778e-05       6.98303e-16       6.75324e-07       5.36784e-01       3.01644e-01       5.36784e-01      
 8.46000e-01       7.59021e-05       1.50542e-05       6.99499e-16       6.97620e-07       5.36784e-01       3.08043e-01       5.36784e-01      
 8.55000e-01       7.73685e-05       1.57440e-05       7.00640e-16       7.20103e-07       5.36784e-01       3.14421e-01       5.36784e-01      
 8.64000e-01       7.88002e-05       1.64467e-05       7.01730e-16       7.42769e-07       5.36784e-01       3.20775e-01       5.36784e-01      
 8.73000e-01       8.01975e-05       1.71623e-05       7.02773e-16       7.65611e-07       5.36784e-01       3.27105e-01       5.36784e-01      
 8.82000e-01       8.15611e-05       1.78902e-05       7.03772e-16       7.88626e-07       5.36784e-01       3.33411e-01       5.36784e-01      
 8.91000e-01       8.28916e-05       1.86303e-05       7.04731e-16       8.11809e-07       5.36784e-01       3.39691e-01       5.36784e-01      
 9.00000e-01       8.41894e-05       1.93821e-05       7.05651e-16       8.35156e-07       5.36784e-01       3.45945e-01       5.36784e-01      
 9.09000e-01       8.54553e-05       2.01455e-05       7.06537e-16       8.58663e-07       5.36784e-01       3.52173e-01       5.36784e-01      
 9.18000e-01       8.66899e-05       2.09202e-05       7.07389e-16       8.82328e-07       5.36784e-01       3.58373e-01       5.36784e-01      
 9.27000e-01       8.78938e-05       2.17058e-05       7.08211e-16       9.06147e-07       5.36784e-01       3.64547e-01       5.36784e-01      
 9.36000e-01       8.90676e-05       2.25022e-05       7.09005e-16       9.30118e-07       5.36784e-01       3.70693e-01       5.36784e-01      
 9.45000e-01       9.02119e-05       2.33089e-05       7.09772e-16       9.54237e-07       5.36784e-01       3.76813e-01       5.36784e-01      
 9.54000e-01       9.13275e-05       2.41259e-05       7.10514e-16       9.78504e-07       5.36784e-01       3.82904e-01       5.36784e-01      
 9.63000e-01       9.24149e-05       2.49527e-05       7.11233e-16       1.00292e-06       5.36784e-01       3.88969e-01       5.36784e-01      
 9.72000e-01       9.34746e-05       2.57892e-05       7.11930e-16       1.02747e-06       5.36784e-01       3.95006e-01       5.36784e-01      
 9.81000e-01       9.45074e-05       2.66351e-05       7.12607e-16       1.05217e-06       5.36784e-01       4.01017e-01       5.36784e-01      
 9.90000e-01       9.55138e-05       2.74902e-05       7.13265e-16       1.07701e-06       5.36784e-01       4.07001e-01       5.36784e-01      
 9.99000e-01       9.64943e-05       2.83542e-05       7.13906e-16       1.10198e-06       5.36784e-01       4.12958e-01       5.36784e-01      
 1.00800e+00       9.74495e-05       2.92269e-05       7.14529e-16       1.12710e-06       5.36784e-01       4.18889e-01       5.36784e-01      
 1.01700e+00       9.83799e-05       3.01082e-05       7.15137e-16       1.15235e-06       5.36784e-01       4.24795e-01       5.36784e-01      
 1.02600e+00       9.92862e-05       3.09976e-05       7.15730e-16       1.17774e-06       5.36784e-01       4.30675e-01       5.36784e-01      
 1.03500e+00       1.00169e-04       3.18952e-05       7.16309e-16       1.20326e-06       5.36784e-01       4.36529e-01       5.36784e-01      
 1.04400e+00       1.01028e-04       3.28005e-05       7.16875e-16       1.22893e-06       5.36784e-01       4.42359e-01       5.36784e-01      
 1.05300e+00       1.01864e-04       3.37135e-05       7.17429e-16       1.25472e-06       5.36784e-01       4.48165e-01       5.36784e-01      
 1.06200e+00       1.02678e-04       3.46339e-05       7.17971e-16       1.28066e-06       5.36784e-01       4.53946e-01       5.36784e-01      
 1.07100e+00       1.03471e-04       3.55616e-05       7.18502e-16       1.30673e-06       5.36784e-01       4.59704e-01       5.36784e-01      
 1.08000e+00       1.04242e-04       3.64963e-05       7.19023e-16       1.33293e-06       5.36784e-01       4.65439e-01       5.36784e-01      
 1.08900e+00       1.04991e-04       3.74378e-05       7.19534e-16       1.35927e-06       5.36784e-01       4.71151e-01       5.36784e-01      
 1.09800e+00       1.05721e-04       3.83860e-05       7.20035e-16       1.38575e-06       5.36784e-01       4.76841e-01       5.36784e-01      
 1.10700e+00       1.06430e-04       3.93406e-05       7.20528e-16       1.41236e-06       5.36784e-01       4.82510e-01       5.36784e-01      
 1.11600e+00       1.07119e-04       4.03016e-05       7.21013e-16       1.43911e-06       5.36784e-01       4.88157e-01       5.36784e-01      
 1.12500e+00       1.07789e-04       4.12686e-05       7.21490e-16       1.46600e-06       5.36784e-01       4.93783e-01       5.36784e-01      
 1.13400e+00       1.08440e-04       4.22416e-05       7.21960e-16       1.49303e-06       5.36784e-01       4.99389e-01       5.36784e-01      
 1.14300e+00       1.09072e-04       4.32204e-05       7.22423e-16       1.52019e-06       5.36784e-01       5.04975e-01       5.36784e-01      
 1.15200e+00       1.09686e-04       4.42048e-05       7.22879e-16       1.54750e-06       5.36784e-01       5.10542e-01       5.36784e-01      
 1.16100e+00       1.10281e-04       4.51946e-05       7.23330e-16       1.57495e-06       5.36784e-01       5.16089e-01       5.36784e-01      
 1.17000e+00       1.10859e-04       4.61897e-05       7.23774e-16       1.60254e-06       5.36784e-01       5.21618e-01       5.36784e-01      
 1.17900e+00       1.11420e-04       4.71899e-05       7.24213e-16       1.63028e-06       5.36784e-01       5.27129e-01       5.36784e-01      
 1.18800e+00       1.11963e-04       4.81951e-05       7.24646e-16       1.65816e-06       5.36784e-01       5.32623e-01       5.36784e-01      
 1.19700e+00       1.12490e-04       4.92052e-05       7.25075e-16       1.68618e-06       5.36784e-01       5.38099e-01       5.36784e-01      
 1.20600e+00       1.13001e-04       5.02198e-05       7.25499e-16       1.71436e-06       5.36784e-01       5.43559e-01       5.36784e-01      
 1.21500e+00       1.13495e-04       5.12390e-05       7.25919e-16       1.74268e-06       5.36784e-01       5.49002e-01       5.36784e-01      
