
dc (V)            getData("M0:gm    getData("M0:id    getData("M0:cg    getData("M0:gd    getData("M0:vt    getData("M0:vd    getData("M0:vt

 0.00000e+00       2.52008e-12       9.65734e-14       1.44271e-15       4.77672e-15       4.92327e-01       4.05068e-02       4.92327e-01      
 9.00000e-03       3.37485e-12       1.22035e-13       1.43715e-15       6.39763e-15       4.92327e-01       4.05068e-02       4.92327e-01      
 1.80000e-02       4.51928e-12       1.56530e-13       1.43182e-15       8.56824e-15       4.92327e-01       4.05069e-02       4.92327e-01      
 2.70000e-02       6.05141e-12       2.03078e-13       1.42673e-15       1.14748e-14       4.92327e-01       4.05069e-02       4.92327e-01      
 3.60000e-02       8.10238e-12       2.65722e-13       1.42189e-15       1.53667e-14       4.92327e-01       4.05070e-02       4.92327e-01      
 4.50000e-02       1.08475e-11       3.49878e-13       1.41731e-15       2.05773e-14       4.92327e-01       4.05071e-02       4.92327e-01      
 5.40000e-02       1.45213e-11       4.62794e-13       1.41304e-15       2.75529e-14       4.92327e-01       4.05072e-02       4.92327e-01      
 6.30000e-02       1.94371e-11       6.14167e-13       1.40909e-15       3.68905e-14       4.92327e-01       4.05074e-02       4.92327e-01      
 7.20000e-02       2.60134e-11       8.16968e-13       1.40551e-15       4.93880e-14       4.92327e-01       4.05076e-02       4.92327e-01      
 8.10000e-02       3.48092e-11       1.08854e-12       1.40235e-15       6.61123e-14       4.92327e-01       4.05079e-02       4.92327e-01      
 9.00000e-02       4.65705e-11       1.45206e-12       1.39966e-15       8.84892e-14       4.92327e-01       4.05083e-02       4.92327e-01      
 9.90000e-02       6.22921e-11       1.93848e-12       1.39752e-15       1.18423e-13       4.92327e-01       4.05088e-02       4.92327e-01      
 1.08000e-01       8.33000e-11       2.58915e-12       1.39602e-15       1.58456e-13       4.92327e-01       4.05095e-02       4.92327e-01      
 1.17000e-01       1.11359e-10       3.45922e-12       1.39527e-15       2.11979e-13       4.92327e-01       4.05105e-02       4.92327e-01      
 1.26000e-01       1.48813e-10       4.62226e-12       1.39536e-15       2.83516e-13       4.92327e-01       4.05117e-02       4.92327e-01      
 1.35000e-01       1.98774e-10       6.17617e-12       1.39644e-15       3.79084e-13       4.92327e-01       4.05134e-02       4.92327e-01      
 1.44000e-01       2.65376e-10       8.25131e-12       1.39874e-15       5.06695e-13       4.92327e-01       4.05157e-02       4.92327e-01      
 1.53000e-01       3.54087e-10       1.10210e-11       1.40246e-15       6.76996e-13       4.92327e-01       4.05187e-02       4.92327e-01      
 1.62000e-01       4.72133e-10       1.47153e-11       1.40785e-15       9.04116e-13       4.92327e-01       4.05227e-02       4.92327e-01      
 1.71000e-01       6.29036e-10       1.96393e-11       1.41521e-15       1.20678e-12       4.92327e-01       4.05281e-02       4.92327e-01      
 1.80000e-01       8.37309e-10       2.61966e-11       1.42484e-15       1.60973e-12       4.92327e-01       4.05352e-02       4.92327e-01      
 1.89000e-01       1.11334e-09       3.49202e-11       1.43711e-15       2.14564e-12       4.92327e-01       4.05447e-02       4.92327e-01      
 1.98000e-01       1.47853e-09       4.65124e-11       1.45242e-15       2.85745e-12       4.92327e-01       4.05572e-02       4.92327e-01      
 2.07000e-01       1.96064e-09       6.18955e-11       1.47118e-15       3.80152e-12       4.92327e-01       4.05739e-02       4.92327e-01      
 2.16000e-01       2.59559e-09       8.22771e-11       1.49385e-15       5.05140e-12       4.92327e-01       4.05960e-02       4.92327e-01      
 2.25000e-01       3.42949e-09       1.09233e-10       1.52089e-15       6.70277e-12       4.92327e-01       4.06252e-02       4.92327e-01      
 2.34000e-01       4.52115e-09       1.44807e-10       1.55275e-15       8.87934e-12       4.92327e-01       4.06637e-02       4.92327e-01      
 2.43000e-01       5.94502e-09       1.91644e-10       1.58989e-15       1.17401e-11       4.92327e-01       4.07142e-02       4.92327e-01      
 2.52000e-01       7.79444e-09       2.53140e-10       1.63270e-15       1.54877e-11       4.92327e-01       4.07804e-02       4.92327e-01      
 2.61000e-01       1.01852e-08       3.33628e-10       1.68156e-15       2.03785e-11       4.92327e-01       4.08668e-02       4.92327e-01      
 2.70000e-01       1.32596e-08       4.38603e-10       1.73675e-15       2.67331e-11       4.92327e-01       4.09789e-02       4.92327e-01      
 2.79000e-01       1.71896e-08       5.74970e-10       1.79848e-15       3.49478e-11       4.92327e-01       4.11237e-02       4.92327e-01      
 2.88000e-01       2.21809e-08       7.51334e-10       1.86687e-15       4.55059e-11       4.92327e-01       4.13097e-02       4.92327e-01      
 2.97000e-01       2.84750e-08       9.78308e-10       1.94193e-15       5.89868e-11       4.92327e-01       4.15468e-02       4.92327e-01      
 3.06000e-01       3.63511e-08       1.26885e-09       2.02356e-15       7.60727e-11       4.92327e-01       4.18468e-02       4.92327e-01      
 3.15000e-01       4.61253e-08       1.63861e-09       2.11153e-15       9.75500e-11       4.92327e-01       4.22233e-02       4.92327e-01      
 3.24000e-01       5.81487e-08       2.10621e-09       2.20552e-15       1.24303e-10       4.92327e-01       4.26910e-02       4.92327e-01      
 3.33000e-01       7.28022e-08       2.69363e-09       2.30509e-15       1.57299e-10       4.92327e-01       4.32661e-02       4.92327e-01      
 3.42000e-01       9.04879e-08       3.42632e-09       2.40971e-15       1.97565e-10       4.92327e-01       4.39655e-02       4.92327e-01      
 3.51000e-01       1.11619e-07       4.33344e-09       2.51875e-15       2.46153e-10       4.92327e-01       4.48058e-02       4.92327e-01      
 3.60000e-01       1.36604e-07       5.44787e-09       2.63154e-15       3.04099e-10       4.92327e-01       4.58031e-02       4.92327e-01      
 3.69000e-01       1.65836e-07       6.80609e-09       2.74731e-15       3.72384e-10       4.92327e-01       4.69719e-02       4.92327e-01      
 3.78000e-01       1.99679e-07       8.44800e-09       2.86528e-15       4.51890e-10       4.92327e-01       4.83242e-02       4.92327e-01      
 3.87000e-01       2.38457e-07       1.04166e-08       2.98467e-15       5.43370e-10       4.92327e-01       4.98695e-02       4.92327e-01      
 3.96000e-01       2.82457e-07       1.27576e-08       3.10467e-15       6.47433e-10       4.92327e-01       5.16144e-02       4.92327e-01      
 4.05000e-01       3.31932e-07       1.55193e-08       3.22450e-15       7.64536e-10       4.92327e-01       5.35624e-02       4.92327e-01      
 4.14000e-01       3.87117e-07       1.87519e-08       3.34343e-15       8.94997e-10       4.92327e-01       5.57146e-02       4.92327e-01      
 4.23000e-01       4.48244e-07       2.25079e-08       3.46077e-15       1.03902e-09       4.92327e-01       5.80699e-02       4.92327e-01      
 4.32000e-01       5.15561e-07       2.68419e-08       3.57589e-15       1.19673e-09       4.92327e-01       6.06260e-02       4.92327e-01      
 4.41000e-01       5.89344e-07       3.18108e-08       3.68825e-15       1.36819e-09       4.92327e-01       6.33796e-02       4.92327e-01      
 4.50000e-01       6.69898e-07       3.74742e-08       3.79737e-15       1.55344e-09       4.92327e-01       6.63270e-02       4.92327e-01      
 4.59000e-01       7.57559e-07       4.38945e-08       3.90284e-15       1.75251e-09       4.92327e-01       6.94648e-02       4.92327e-01      
 4.68000e-01       8.52675e-07       5.11373e-08       4.00435e-15       1.96544e-09       4.92327e-01       7.27895e-02       4.92327e-01      
 4.77000e-01       9.55599e-07       5.92712e-08       4.10165e-15       2.19230e-09       4.92327e-01       7.62980e-02       4.92327e-01      
 4.86000e-01       1.06666e-06       6.83681e-08       4.19459e-15       2.43316e-09       4.92327e-01       7.99877e-02       4.92327e-01      
 4.95000e-01       1.18615e-06       7.85024e-08       4.28305e-15       2.68809e-09       4.92327e-01       8.38560e-02       4.92327e-01      
 5.04000e-01       1.31429e-06       8.97511e-08       4.36699e-15       2.95718e-09       4.92327e-01       8.79003e-02       4.92327e-01      
 5.13000e-01       1.45126e-06       1.02193e-07       4.44642e-15       3.24052e-09       4.92327e-01       9.21180e-02       4.92327e-01      
 5.22000e-01       1.59714e-06       1.15908e-07       4.52141e-15       3.53816e-09       4.92327e-01       9.65064e-02       4.92327e-01      
 5.31000e-01       1.75191e-06       1.30976e-07       4.59203e-15       3.85015e-09       4.92327e-01       1.01062e-01       4.92327e-01      
 5.40000e-01       1.91549e-06       1.47477e-07       4.65842e-15       4.17649e-09       4.92327e-01       1.05782e-01       4.92327e-01      
 5.49000e-01       2.08768e-06       1.65489e-07       4.72072e-15       4.51718e-09       4.92327e-01       1.10662e-01       4.92327e-01      
 5.58000e-01       2.26822e-06       1.85089e-07       4.77910e-15       4.87216e-09       4.92327e-01       1.15697e-01       4.92327e-01      
 5.67000e-01       2.45679e-06       2.06351e-07       4.83375e-15       5.24134e-09       4.92327e-01       1.20884e-01       4.92327e-01      
 5.76000e-01       2.65298e-06       2.29344e-07       4.88484e-15       5.62460e-09       4.92327e-01       1.26215e-01       4.92327e-01      
 5.85000e-01       2.85634e-06       2.54136e-07       4.93258e-15       6.02180e-09       4.92327e-01       1.31687e-01       4.92327e-01      
 5.94000e-01       3.06638e-06       2.80788e-07       4.97716e-15       6.43275e-09       4.92327e-01       1.37292e-01       4.92327e-01      
 6.03000e-01       3.28259e-06       3.09359e-07       5.01876e-15       6.85726e-09       4.92327e-01       1.43026e-01       4.92327e-01      
 6.12000e-01       3.50445e-06       3.39902e-07       5.05759e-15       7.29510e-09       4.92327e-01       1.48881e-01       4.92327e-01      
 6.21000e-01       3.73141e-06       3.72465e-07       5.09382e-15       7.74604e-09       4.92327e-01       1.54852e-01       4.92327e-01      
 6.30000e-01       3.96294e-06       4.07091e-07       5.12763e-15       8.20984e-09       4.92327e-01       1.60932e-01       4.92327e-01      
 6.39000e-01       4.19853e-06       4.43820e-07       5.15918e-15       8.68623e-09       4.92327e-01       1.67115e-01       4.92327e-01      
 6.48000e-01       4.43767e-06       4.82686e-07       5.18865e-15       9.17498e-09       4.92327e-01       1.73395e-01       4.92327e-01      
 6.57000e-01       4.67989e-06       5.23718e-07       5.21617e-15       9.67581e-09       4.92327e-01       1.79766e-01       4.92327e-01      
 6.66000e-01       4.92473e-06       5.66941e-07       5.24190e-15       1.01885e-08       4.92327e-01       1.86223e-01       4.92327e-01      
 6.75000e-01       5.17179e-06       6.12379e-07       5.26597e-15       1.07128e-08       4.92327e-01       1.92759e-01       4.92327e-01      
 6.84000e-01       5.42066e-06       6.60048e-07       5.28850e-15       1.12484e-08       4.92327e-01       1.99370e-01       4.92327e-01      
 6.93000e-01       5.67099e-06       7.09964e-07       5.30961e-15       1.17952e-08       4.92327e-01       2.06051e-01       4.92327e-01      
 7.02000e-01       5.92246e-06       7.62138e-07       5.32941e-15       1.23530e-08       4.92327e-01       2.12797e-01       4.92327e-01      
 7.11000e-01       6.17477e-06       8.16579e-07       5.34800e-15       1.29214e-08       4.92327e-01       2.19604e-01       4.92327e-01      
 7.20000e-01       6.42765e-06       8.73293e-07       5.36547e-15       1.35004e-08       4.92327e-01       2.26467e-01       4.92327e-01      
 7.29000e-01       6.68087e-06       9.32285e-07       5.38190e-15       1.40898e-08       4.92327e-01       2.33383e-01       4.92327e-01      
 7.38000e-01       6.93421e-06       9.93556e-07       5.39739e-15       1.46894e-08       4.92327e-01       2.40349e-01       4.92327e-01      
 7.47000e-01       7.18748e-06       1.05711e-06       5.41200e-15       1.52991e-08       4.92327e-01       2.47361e-01       4.92327e-01      
 7.56000e-01       7.44051e-06       1.12293e-06       5.42579e-15       1.59187e-08       4.92327e-01       2.54415e-01       4.92327e-01      
 7.65000e-01       7.69316e-06       1.19104e-06       5.43884e-15       1.65482e-08       4.92327e-01       2.61510e-01       4.92327e-01      
 7.74000e-01       7.94529e-06       1.26141e-06       5.45119e-15       1.71874e-08       4.92327e-01       2.68643e-01       4.92327e-01      
 7.83000e-01       8.19679e-06       1.33406e-06       5.46290e-15       1.78362e-08       4.92327e-01       2.75810e-01       4.92327e-01      
 7.92000e-01       8.44755e-06       1.40896e-06       5.47402e-15       1.84946e-08       4.92327e-01       2.83011e-01       4.92327e-01      
 8.01000e-01       8.69749e-06       1.48611e-06       5.48459e-15       1.91626e-08       4.92327e-01       2.90243e-01       4.92327e-01      
 8.10000e-01       8.94653e-06       1.56551e-06       5.49466e-15       1.98399e-08       4.92327e-01       2.97505e-01       4.92327e-01      
 8.19000e-01       9.19460e-06       1.64715e-06       5.50425e-15       2.05268e-08       4.92327e-01       3.04794e-01       4.92327e-01      
 8.28000e-01       9.44163e-06       1.73101e-06       5.51341e-15       2.12230e-08       4.92327e-01       3.12110e-01       4.92327e-01      
 8.37000e-01       9.68758e-06       1.81709e-06       5.52216e-15       2.19286e-08       4.92327e-01       3.19450e-01       4.92327e-01      
 8.46000e-01       9.93238e-06       1.90538e-06       5.53053e-15       2.26435e-08       4.92327e-01       3.26814e-01       4.92327e-01      
 8.55000e-01       1.01760e-05       1.99587e-06       5.53855e-15       2.33679e-08       4.92327e-01       3.34201e-01       4.92327e-01      
 8.64000e-01       1.04184e-05       2.08855e-06       5.54625e-15       2.41017e-08       4.92327e-01       3.41610e-01       4.92327e-01      
 8.73000e-01       1.06596e-05       2.18340e-06       5.55365e-15       2.48448e-08       4.92327e-01       3.49039e-01       4.92327e-01      
 8.82000e-01       1.08994e-05       2.28041e-06       5.56075e-15       2.55975e-08       4.92327e-01       3.56489e-01       4.92327e-01      
 8.91000e-01       1.11379e-05       2.37958e-06       5.56760e-15       2.63596e-08       4.92327e-01       3.63957e-01       4.92327e-01      
 9.00000e-01       1.13751e-05       2.48089e-06       5.57420e-15       2.71313e-08       4.92327e-01       3.71445e-01       4.92327e-01      
 9.09000e-01       1.16109e-05       2.58432e-06       5.58056e-15       2.79126e-08       4.92327e-01       3.78950e-01       4.92327e-01      
 9.18000e-01       1.18453e-05       2.68988e-06       5.58671e-15       2.87035e-08       4.92327e-01       3.86473e-01       4.92327e-01      
 9.27000e-01       1.20782e-05       2.79753e-06       5.59265e-15       2.95042e-08       4.92327e-01       3.94013e-01       4.92327e-01      
 9.36000e-01       1.23097e-05       2.90727e-06       5.59840e-15       3.03147e-08       4.92327e-01       4.01569e-01       4.92327e-01      
 9.45000e-01       1.25397e-05       3.01909e-06       5.60397e-15       3.11351e-08       4.92327e-01       4.09142e-01       4.92327e-01      
 9.54000e-01       1.27681e-05       3.13298e-06       5.60937e-15       3.19656e-08       4.92327e-01       4.16731e-01       4.92327e-01      
 9.63000e-01       1.29951e-05       3.24891e-06       5.61460e-15       3.28061e-08       4.92327e-01       4.24336e-01       4.92327e-01      
 9.72000e-01       1.32205e-05       3.36688e-06       5.61969e-15       3.36568e-08       4.92327e-01       4.31956e-01       4.92327e-01      
 9.81000e-01       1.34443e-05       3.48687e-06       5.62464e-15       3.45179e-08       4.92327e-01       4.39591e-01       4.92327e-01      
 9.90000e-01       1.36664e-05       3.60886e-06       5.62945e-15       3.53894e-08       4.92327e-01       4.47242e-01       4.92327e-01      
 9.99000e-01       1.38870e-05       3.73285e-06       5.63413e-15       3.62715e-08       4.92327e-01       4.54907e-01       4.92327e-01      
 1.00800e+00       1.41059e-05       3.85882e-06       5.63868e-15       3.71643e-08       4.92327e-01       4.62587e-01       4.92327e-01      
 1.01700e+00       1.43232e-05       3.98675e-06       5.64313e-15       3.80680e-08       4.92327e-01       4.70282e-01       4.92327e-01      
 1.02600e+00       1.45387e-05       4.11662e-06       5.64746e-15       3.89827e-08       4.92327e-01       4.77992e-01       4.92327e-01      
 1.03500e+00       1.47525e-05       4.24843e-06       5.65169e-15       3.99085e-08       4.92327e-01       4.85716e-01       4.92327e-01      
 1.04400e+00       1.49646e-05       4.38215e-06       5.65582e-15       4.08457e-08       4.92327e-01       4.93455e-01       4.92327e-01      
 1.05300e+00       1.51749e-05       4.51778e-06       5.65985e-15       4.17944e-08       4.92327e-01       5.01208e-01       4.92327e-01      
 1.06200e+00       1.53834e-05       4.65529e-06       5.66379e-15       4.27547e-08       4.92327e-01       5.08976e-01       4.92327e-01      
 1.07100e+00       1.55901e-05       4.79467e-06       5.66765e-15       4.37269e-08       4.92327e-01       5.16758e-01       4.92327e-01      
 1.08000e+00       1.57949e-05       4.93590e-06       5.67142e-15       4.47112e-08       4.92327e-01       5.24555e-01       4.92327e-01      
 1.08900e+00       1.59979e-05       5.07896e-06       5.67512e-15       4.57078e-08       4.92327e-01       5.32366e-01       4.92327e-01      
 1.09800e+00       1.61990e-05       5.22385e-06       5.67873e-15       4.67168e-08       4.92327e-01       5.40191e-01       4.92327e-01      
 1.10700e+00       1.63983e-05       5.37053e-06       5.68228e-15       4.77385e-08       4.92327e-01       5.48032e-01       4.92327e-01      
 1.11600e+00       1.65956e-05       5.51900e-06       5.68575e-15       4.87731e-08       4.92327e-01       5.55886e-01       4.92327e-01      
 1.12500e+00       1.67909e-05       5.66924e-06       5.68916e-15       4.98209e-08       4.92327e-01       5.63756e-01       4.92327e-01      
 1.13400e+00       1.69843e-05       5.82123e-06       5.69250e-15       5.08821e-08       4.92327e-01       5.71640e-01       4.92327e-01      
 1.14300e+00       1.71758e-05       5.97494e-06       5.69578e-15       5.19569e-08       4.92327e-01       5.79539e-01       4.92327e-01      
 1.15200e+00       1.73652e-05       6.13038e-06       5.69900e-15       5.30457e-08       4.92327e-01       5.87452e-01       4.92327e-01      
 1.16100e+00       1.75526e-05       6.28751e-06       5.70216e-15       5.41487e-08       4.92327e-01       5.95381e-01       4.92327e-01      
 1.17000e+00       1.77380e-05       6.44631e-06       5.70527e-15       5.52661e-08       4.92327e-01       6.03324e-01       4.92327e-01      
 1.17900e+00       1.79214e-05       6.60678e-06       5.70832e-15       5.63984e-08       4.92327e-01       6.11283e-01       4.92327e-01      
 1.18800e+00       1.81026e-05       6.76888e-06       5.71132e-15       5.75457e-08       4.92327e-01       6.19257e-01       4.92327e-01      
 1.19700e+00       1.82818e-05       6.93261e-06       5.71427e-15       5.87084e-08       4.92327e-01       6.27246e-01       4.92327e-01      
 1.20600e+00       1.84589e-05       7.09795e-06       5.71717e-15       5.98869e-08       4.92327e-01       6.35250e-01       4.92327e-01      
 1.21500e+00       1.86339e-05       7.26486e-06       5.72003e-15       6.10815e-08       4.92327e-01       6.43269e-01       4.92327e-01      
