
dc (V)            getData("M0:gm    getData("M0:id    getData("M0:cg    getData("M0:gd    getData("M0:vt    getData("M0:vd    getData("M0:vt

 0.00000e+00       8.89984e-13       4.62087e-14       3.96982e-15       6.77340e-16       4.86015e-01       3.93218e-02       4.86015e-01      
 9.00000e-03       1.19351e-12       5.46317e-14       3.95354e-15       9.08462e-16       4.86015e-01       3.93218e-02       4.86015e-01      
 1.80000e-02       1.60047e-12       6.63265e-14       3.93795e-15       1.21840e-15       4.86015e-01       3.93219e-02       4.86015e-01      
 2.70000e-02       2.14604e-12       8.23662e-14       3.92310e-15       1.63400e-15       4.86015e-01       3.93219e-02       4.86015e-01      
 3.60000e-02       2.87735e-12       1.04192e-13       3.90904e-15       2.19125e-15       4.86015e-01       3.93220e-02       4.86015e-01      
 4.50000e-02       3.85752e-12       1.33740e-13       3.89584e-15       2.93835e-15       4.86015e-01       3.93221e-02       4.86015e-01      
 5.40000e-02       5.17101e-12       1.73605e-13       3.88359e-15       3.93989e-15       4.86015e-01       3.93223e-02       4.86015e-01      
 6.30000e-02       6.93087e-12       2.27265e-13       3.87238e-15       5.28237e-15       4.86015e-01       3.93224e-02       4.86015e-01      
 7.20000e-02       9.28827e-12       2.99382e-13       3.86235e-15       7.08157e-15       4.86015e-01       3.93227e-02       4.86015e-01      
 8.10000e-02       1.24453e-11       3.96197e-13       3.85367e-15       9.49251e-15       4.86015e-01       3.93230e-02       4.86015e-01      
 9.00000e-02       1.66721e-11       5.26061e-13       3.84653e-15       1.27225e-14       4.86015e-01       3.93235e-02       4.86015e-01      
 9.90000e-02       2.23290e-11       7.00146e-13       3.84119e-15       1.70489e-14       4.86015e-01       3.93241e-02       4.86015e-01      
 1.08000e-01       2.98969e-11       9.33386e-13       3.83792e-15       2.28423e-14       4.86015e-01       3.93249e-02       4.86015e-01      
 1.17000e-01       4.00167e-11       1.24573e-12       3.83710e-15       3.05976e-14       4.86015e-01       3.93260e-02       4.86015e-01      
 1.26000e-01       5.35397e-11       1.66381e-12       3.83904e-15       4.09754e-14       4.86015e-01       3.93274e-02       4.86015e-01      
 1.35000e-01       7.15967e-11       2.22310e-12       3.84422e-15       5.48556e-14       4.86015e-01       3.93294e-02       4.86015e-01      
 1.44000e-01       9.56911e-11       2.97088e-12       3.85337e-15       7.34103e-14       4.86015e-01       3.93319e-02       4.86015e-01      
 1.53000e-01       1.27812e-10       3.97004e-12       3.86718e-15       9.81982e-14       4.86015e-01       3.93354e-02       4.86015e-01      
 1.62000e-01       1.70587e-10       5.30413e-12       3.88643e-15       1.31289e-13       4.86015e-01       3.93400e-02       4.86015e-01      
 1.71000e-01       2.27480e-10       7.08397e-12       3.91206e-15       1.75425e-13       4.86015e-01       3.93462e-02       4.86015e-01      
 1.80000e-01       3.03039e-10       9.45620e-12       3.94507e-15       2.34235e-13       4.86015e-01       3.93544e-02       4.86015e-01      
 1.89000e-01       4.03217e-10       1.26145e-11       3.98660e-15       3.12502e-13       4.86015e-01       3.93653e-02       4.86015e-01      
 1.98000e-01       5.35773e-10       1.68139e-11       4.03789e-15       4.16519e-13       4.86015e-01       3.93798e-02       4.86015e-01      
 2.07000e-01       7.10770e-10       2.23894e-11       4.10024e-15       5.54528e-13       4.86015e-01       3.93990e-02       4.86015e-01      
 2.16000e-01       9.41185e-10       2.97790e-11       4.17503e-15       7.37285e-13       4.86015e-01       3.94244e-02       4.86015e-01      
 2.25000e-01       1.24364e-09       3.95534e-11       4.26361e-15       9.78751e-13       4.86015e-01       3.94581e-02       4.86015e-01      
 2.34000e-01       1.63929e-09       5.24529e-11       4.36735e-15       1.29694e-12       4.86015e-01       3.95023e-02       4.86015e-01      
 2.43000e-01       2.15478e-09       6.94318e-11       4.48752e-15       1.71494e-12       4.86015e-01       3.95605e-02       4.86015e-01      
 2.52000e-01       2.82339e-09       9.17136e-11       4.62524e-15       2.26208e-12       4.86015e-01       3.96365e-02       4.86015e-01      
 2.61000e-01       3.68625e-09       1.20856e-10       4.78148e-15       2.97532e-12       4.86015e-01       3.97356e-02       4.86015e-01      
 2.70000e-01       4.79354e-09       1.58826e-10       4.95696e-15       3.90064e-12       4.86015e-01       3.98639e-02       4.86015e-01      
 2.79000e-01       6.20568e-09       2.08089e-10       5.15213e-15       5.09455e-12       4.86015e-01       4.00292e-02       4.86015e-01      
 2.88000e-01       7.99438e-09       2.71703e-10       5.36713e-15       6.62552e-12       4.86015e-01       4.02408e-02       4.86015e-01      
 2.97000e-01       1.02434e-08       3.53427e-10       5.60176e-15       8.57500e-12       4.86015e-01       4.05096e-02       4.86015e-01      
 3.06000e-01       1.30489e-08       4.57828e-10       5.85551e-15       1.10381e-11       4.86015e-01       4.08481e-02       4.86015e-01      
 3.15000e-01       1.65190e-08       5.90396e-10       6.12749e-15       1.41236e-11       4.86015e-01       4.12706e-02       4.86015e-01      
 3.24000e-01       2.07731e-08       7.57643e-10       6.41651e-15       1.79523e-11       4.86015e-01       4.17923e-02       4.86015e-01      
 3.33000e-01       2.59394e-08       9.67200e-10       6.72107e-15       2.26554e-11       4.86015e-01       4.24297e-02       4.86015e-01      
 3.42000e-01       3.21524e-08       1.22788e-09       7.03940e-15       2.83708e-11       4.86015e-01       4.31991e-02       4.86015e-01      
 3.51000e-01       3.95487e-08       1.54973e-09       7.36948e-15       3.52384e-11       4.86015e-01       4.41165e-02       4.86015e-01      
 3.60000e-01       4.82626e-08       1.94399e-09       7.70915e-15       4.33954e-11       4.86015e-01       4.51965e-02       4.86015e-01      
 3.69000e-01       5.84216e-08       2.42313e-09       8.05608e-15       5.29710e-11       4.86015e-01       4.64519e-02       4.86015e-01      
 3.78000e-01       7.01430e-08       3.00068e-09       8.40790e-15       6.40818e-11       4.86015e-01       4.78927e-02       4.86015e-01      
 3.87000e-01       8.35327e-08       3.69119e-09       8.76223e-15       7.68288e-11       4.86015e-01       4.95262e-02       4.86015e-01      
 3.96000e-01       9.86855e-08       4.51013e-09       9.11672e-15       9.12959e-11       4.86015e-01       5.13567e-02       4.86015e-01      
 4.05000e-01       1.15689e-07       5.47375e-09       9.46915e-15       1.07550e-10       4.86015e-01       5.33862e-02       4.86015e-01      
 4.14000e-01       1.34629e-07       6.59910e-09       9.81739e-15       1.25642e-10       4.86015e-01       5.56143e-02       4.86015e-01      
 4.23000e-01       1.55594e-07       7.90401e-09       1.01596e-14       1.45612e-10       4.86015e-01       5.80391e-02       4.86015e-01      
 4.32000e-01       1.78681e-07       9.40714e-09       1.04939e-14       1.67492e-10       4.86015e-01       6.06580e-02       4.86015e-01      
 4.41000e-01       2.03995e-07       1.11280e-08       1.08190e-14       1.91305e-10       4.86015e-01       6.34675e-02       4.86015e-01      
 4.50000e-01       2.31654e-07       1.30873e-08       1.11335e-14       2.17077e-10       4.86015e-01       6.64646e-02       4.86015e-01      
 4.59000e-01       2.61779e-07       1.53066e-08       1.14365e-14       2.44828e-10       4.86015e-01       6.96460e-02       4.86015e-01      
 4.68000e-01       2.94495e-07       1.78086e-08       1.17272e-14       2.74583e-10       4.86015e-01       7.30090e-02       4.86015e-01      
 4.77000e-01       3.29921e-07       2.06173e-08       1.20049e-14       3.06365e-10       4.86015e-01       7.65512e-02       4.86015e-01      
 4.86000e-01       3.68167e-07       2.37574e-08       1.22695e-14       3.40198e-10       4.86015e-01       8.02702e-02       4.86015e-01      
 4.95000e-01       4.09322e-07       2.72549e-08       1.25206e-14       3.76104e-10       4.86015e-01       8.41638e-02       4.86015e-01      
 5.04000e-01       4.53457e-07       3.11362e-08       1.27584e-14       4.14107e-10       4.86015e-01       8.82299e-02       4.86015e-01      
 5.13000e-01       5.00615e-07       3.54284e-08       1.29828e-14       4.54223e-10       4.86015e-01       9.24659e-02       4.86015e-01      
 5.22000e-01       5.50809e-07       4.01588e-08       1.31943e-14       4.96468e-10       4.86015e-01       9.68691e-02       4.86015e-01      
 5.31000e-01       6.04023e-07       4.53545e-08       1.33930e-14       5.40852e-10       4.86015e-01       1.01436e-01       4.86015e-01      
 5.40000e-01       6.60213e-07       5.10427e-08       1.35796e-14       5.87378e-10       4.86015e-01       1.06164e-01       4.86015e-01      
 5.49000e-01       7.19307e-07       5.72498e-08       1.37544e-14       6.36047e-10       4.86015e-01       1.11048e-01       4.86015e-01      
 5.58000e-01       7.81205e-07       6.40015e-08       1.39180e-14       6.86851e-10       4.86015e-01       1.16085e-01       4.86015e-01      
 5.67000e-01       8.45787e-07       7.13226e-08       1.40709e-14       7.39778e-10       4.86015e-01       1.21268e-01       4.86015e-01      
 5.76000e-01       9.12913e-07       7.92364e-08       1.42138e-14       7.94810e-10       4.86015e-01       1.26593e-01       4.86015e-01      
 5.85000e-01       9.82430e-07       8.77653e-08       1.43471e-14       8.51927e-10       4.86015e-01       1.32055e-01       4.86015e-01      
 5.94000e-01       1.05417e-06       9.69300e-08       1.44716e-14       9.11101e-10       4.86015e-01       1.37647e-01       4.86015e-01      
 6.03000e-01       1.12797e-06       1.06750e-07       1.45877e-14       9.72304e-10       4.86015e-01       1.43364e-01       4.86015e-01      
 6.12000e-01       1.20365e-06       1.17242e-07       1.46959e-14       1.03550e-09       4.86015e-01       1.49199e-01       4.86015e-01      
 6.21000e-01       1.28103e-06       1.28424e-07       1.47969e-14       1.10067e-09       4.86015e-01       1.55147e-01       4.86015e-01      
 6.30000e-01       1.35995e-06       1.40309e-07       1.48912e-14       1.16776e-09       4.86015e-01       1.61201e-01       4.86015e-01      
 6.39000e-01       1.44023e-06       1.52910e-07       1.49791e-14       1.23674e-09       4.86015e-01       1.67355e-01       4.86015e-01      
 6.48000e-01       1.52172e-06       1.66240e-07       1.50613e-14       1.30758e-09       4.86015e-01       1.73605e-01       4.86015e-01      
 6.57000e-01       1.60427e-06       1.80308e-07       1.51380e-14       1.38024e-09       4.86015e-01       1.79944e-01       4.86015e-01      
 6.66000e-01       1.68773e-06       1.95123e-07       1.52097e-14       1.45468e-09       4.86015e-01       1.86366e-01       4.86015e-01      
 6.75000e-01       1.77197e-06       2.10692e-07       1.52768e-14       1.53088e-09       4.86015e-01       1.92868e-01       4.86015e-01      
 6.84000e-01       1.85687e-06       2.27023e-07       1.53397e-14       1.60880e-09       4.86015e-01       1.99443e-01       4.86015e-01      
 6.93000e-01       1.94231e-06       2.44120e-07       1.53986e-14       1.68841e-09       4.86015e-01       2.06088e-01       4.86015e-01      
 7.02000e-01       2.02820e-06       2.61989e-07       1.54539e-14       1.76967e-09       4.86015e-01       2.12798e-01       4.86015e-01      
 7.11000e-01       2.11445e-06       2.80632e-07       1.55059e-14       1.85258e-09       4.86015e-01       2.19568e-01       4.86015e-01      
 7.20000e-01       2.20097e-06       3.00052e-07       1.55547e-14       1.93709e-09       4.86015e-01       2.26396e-01       4.86015e-01      
 7.29000e-01       2.28768e-06       3.20252e-07       1.56007e-14       2.02319e-09       4.86015e-01       2.33278e-01       4.86015e-01      
 7.38000e-01       2.37453e-06       3.41233e-07       1.56441e-14       2.11086e-09       4.86015e-01       2.40210e-01       4.86015e-01      
 7.47000e-01       2.46144e-06       3.62996e-07       1.56850e-14       2.20007e-09       4.86015e-01       2.47190e-01       4.86015e-01      
 7.56000e-01       2.54838e-06       3.85541e-07       1.57237e-14       2.29082e-09       4.86015e-01       2.54214e-01       4.86015e-01      
 7.65000e-01       2.63529e-06       4.08868e-07       1.57603e-14       2.38309e-09       4.86015e-01       2.61281e-01       4.86015e-01      
 7.74000e-01       2.72213e-06       4.32977e-07       1.57950e-14       2.47687e-09       4.86015e-01       2.68388e-01       4.86015e-01      
 7.83000e-01       2.80886e-06       4.57867e-07       1.58279e-14       2.57215e-09       4.86015e-01       2.75532e-01       4.86015e-01      
 7.92000e-01       2.89546e-06       4.83537e-07       1.58592e-14       2.66891e-09       4.86015e-01       2.82712e-01       4.86015e-01      
 8.01000e-01       2.98189e-06       5.09986e-07       1.58890e-14       2.76716e-09       4.86015e-01       2.89926e-01       4.86015e-01      
 8.10000e-01       3.06813e-06       5.37211e-07       1.59173e-14       2.86689e-09       4.86015e-01       2.97172e-01       4.86015e-01      
 8.19000e-01       3.15415e-06       5.65212e-07       1.59444e-14       2.96810e-09       4.86015e-01       3.04449e-01       4.86015e-01      
 8.28000e-01       3.23994e-06       5.93985e-07       1.59702e-14       3.07078e-09       4.86015e-01       3.11756e-01       4.86015e-01      
 8.37000e-01       3.32548e-06       6.23530e-07       1.59950e-14       3.17495e-09       4.86015e-01       3.19092e-01       4.86015e-01      
 8.46000e-01       3.41075e-06       6.53843e-07       1.60186e-14       3.28059e-09       4.86015e-01       3.26454e-01       4.86015e-01      
 8.55000e-01       3.49573e-06       6.84922e-07       1.60413e-14       3.38772e-09       4.86015e-01       3.33843e-01       4.86015e-01      
 8.64000e-01       3.58041e-06       7.16765e-07       1.60631e-14       3.49634e-09       4.86015e-01       3.41257e-01       4.86015e-01      
 8.73000e-01       3.66477e-06       7.49368e-07       1.60841e-14       3.60646e-09       4.86015e-01       3.48696e-01       4.86015e-01      
 8.82000e-01       3.74881e-06       7.82729e-07       1.61042e-14       3.71808e-09       4.86015e-01       3.56159e-01       4.86015e-01      
 8.91000e-01       3.83251e-06       8.16844e-07       1.61237e-14       3.83122e-09       4.86015e-01       3.63645e-01       4.86015e-01      
 9.00000e-01       3.91587e-06       8.51712e-07       1.61424e-14       3.94589e-09       4.86015e-01       3.71153e-01       4.86015e-01      
 9.09000e-01       3.99886e-06       8.87328e-07       1.61605e-14       4.06209e-09       4.86015e-01       3.78684e-01       4.86015e-01      
 9.18000e-01       4.08148e-06       9.23689e-07       1.61779e-14       4.17985e-09       4.86015e-01       3.86237e-01       4.86015e-01      
 9.27000e-01       4.16372e-06       9.60792e-07       1.61948e-14       4.29917e-09       4.86015e-01       3.93811e-01       4.86015e-01      
 9.36000e-01       4.24556e-06       9.98633e-07       1.62112e-14       4.42008e-09       4.86015e-01       4.01405e-01       4.86015e-01      
 9.45000e-01       4.32701e-06       1.03721e-06       1.62270e-14       4.54258e-09       4.86015e-01       4.09021e-01       4.86015e-01      
 9.54000e-01       4.40804e-06       1.07652e-06       1.62424e-14       4.66671e-09       4.86015e-01       4.16657e-01       4.86015e-01      
 9.63000e-01       4.48865e-06       1.11655e-06       1.62573e-14       4.79247e-09       4.86015e-01       4.24312e-01       4.86015e-01      
 9.72000e-01       4.56882e-06       1.15731e-06       1.62718e-14       4.91989e-09       4.86015e-01       4.31988e-01       4.86015e-01      
 9.81000e-01       4.64856e-06       1.19879e-06       1.62859e-14       5.04899e-09       4.86015e-01       4.39683e-01       4.86015e-01      
 9.90000e-01       4.72784e-06       1.24098e-06       1.62996e-14       5.17979e-09       4.86015e-01       4.47398e-01       4.86015e-01      
 9.99000e-01       4.80665e-06       1.28388e-06       1.63130e-14       5.31232e-09       4.86015e-01       4.55132e-01       4.86015e-01      
 1.00800e+00       4.88500e-06       1.32750e-06       1.63260e-14       5.44660e-09       4.86015e-01       4.62886e-01       4.86015e-01      
 1.01700e+00       4.96286e-06       1.37181e-06       1.63387e-14       5.58266e-09       4.86015e-01       4.70659e-01       4.86015e-01      
 1.02600e+00       5.04023e-06       1.41682e-06       1.63510e-14       5.72053e-09       4.86015e-01       4.78450e-01       4.86015e-01      
 1.03500e+00       5.11709e-06       1.46253e-06       1.63631e-14       5.86023e-09       4.86015e-01       4.86261e-01       4.86015e-01      
 1.04400e+00       5.19344e-06       1.50893e-06       1.63749e-14       6.00180e-09       4.86015e-01       4.94091e-01       4.86015e-01      
 1.05300e+00       5.26927e-06       1.55601e-06       1.63864e-14       6.14527e-09       4.86015e-01       5.01940e-01       4.86015e-01      
 1.06200e+00       5.34457e-06       1.60377e-06       1.63976e-14       6.29067e-09       4.86015e-01       5.09808e-01       4.86015e-01      
 1.07100e+00       5.41933e-06       1.65221e-06       1.64086e-14       6.43804e-09       4.86015e-01       5.17694e-01       4.86015e-01      
 1.08000e+00       5.49353e-06       1.70131e-06       1.64194e-14       6.58741e-09       4.86015e-01       5.25600e-01       4.86015e-01      
 1.08900e+00       5.56717e-06       1.75109e-06       1.64299e-14       6.73882e-09       4.86015e-01       5.33524e-01       4.86015e-01      
 1.09800e+00       5.64024e-06       1.80152e-06       1.64402e-14       6.89231e-09       4.86015e-01       5.41468e-01       4.86015e-01      
 1.10700e+00       5.71273e-06       1.85261e-06       1.64504e-14       7.04791e-09       4.86015e-01       5.49430e-01       4.86015e-01      
 1.11600e+00       5.78463e-06       1.90434e-06       1.64603e-14       7.20568e-09       4.86015e-01       5.57412e-01       4.86015e-01      
 1.12500e+00       5.85594e-06       1.95673e-06       1.64700e-14       7.36566e-09       4.86015e-01       5.65412e-01       4.86015e-01      
 1.13400e+00       5.92663e-06       2.00975e-06       1.64795e-14       7.52789e-09       4.86015e-01       5.73432e-01       4.86015e-01      
 1.14300e+00       5.99671e-06       2.06340e-06       1.64888e-14       7.69242e-09       4.86015e-01       5.81470e-01       4.86015e-01      
 1.15200e+00       6.06616e-06       2.11768e-06       1.64980e-14       7.85930e-09       4.86015e-01       5.89528e-01       4.86015e-01      
 1.16100e+00       6.13499e-06       2.17259e-06       1.65070e-14       8.02858e-09       4.86015e-01       5.97605e-01       4.86015e-01      
 1.17000e+00       6.20317e-06       2.22811e-06       1.65158e-14       8.20031e-09       4.86015e-01       6.05702e-01       4.86015e-01      
 1.17900e+00       6.27070e-06       2.28424e-06       1.65245e-14       8.37456e-09       4.86015e-01       6.13817e-01       4.86015e-01      
 1.18800e+00       6.33757e-06       2.34098e-06       1.65330e-14       8.55138e-09       4.86015e-01       6.21952e-01       4.86015e-01      
 1.19700e+00       6.40378e-06       2.39831e-06       1.65414e-14       8.73083e-09       4.86015e-01       6.30107e-01       4.86015e-01      
 1.20600e+00       6.46932e-06       2.45624e-06       1.65497e-14       8.91297e-09       4.86015e-01       6.38281e-01       4.86015e-01      
 1.21500e+00       6.53418e-06       2.51476e-06       1.65578e-14       9.09787e-09       4.86015e-01       6.46475e-01       4.86015e-01      
