
dc (V)            getData("M0:gm    getData("M0:id    getData("M0:cg    getData("M0:gd    getData("M0:vt    getData("M0:vd    getData("M0:vt

 0.00000e+00       1.79220e-12       7.40247e-14       1.99276e-15       2.52698e-15       4.89716e-01       3.99858e-02       4.89716e-01      
 9.00000e-03       2.40158e-12       9.18812e-14       1.98486e-15       3.38658e-15       4.89716e-01       3.99858e-02       4.89716e-01      
 1.80000e-02       3.21796e-12       1.16207e-13       1.97729e-15       4.53843e-15       4.89716e-01       3.99858e-02       4.89716e-01      
 2.70000e-02       4.31159e-12       1.49158e-13       1.97007e-15       6.08178e-15       4.89716e-01       3.99859e-02       4.89716e-01      
 3.60000e-02       5.77644e-12       1.93625e-13       1.96321e-15       8.14956e-15       4.89716e-01       3.99860e-02       4.89716e-01      
 4.50000e-02       7.73828e-12       2.53482e-13       1.95675e-15       1.09197e-14       4.89716e-01       3.99861e-02       4.89716e-01      
 5.40000e-02       1.03654e-11       3.33916e-13       1.95073e-15       1.46305e-14       4.89716e-01       3.99862e-02       4.89716e-01      
 6.30000e-02       1.38826e-11       4.41875e-13       1.94519e-15       1.96007e-14       4.89716e-01       3.99864e-02       4.89716e-01      
 7.20000e-02       1.85908e-11       5.86656e-13       1.94019e-15       2.62569e-14       4.89716e-01       3.99866e-02       4.89716e-01      
 8.10000e-02       2.48915e-11       7.80699e-13       1.93581e-15       3.51697e-14       4.89716e-01       3.99869e-02       4.89716e-01      
 9.00000e-02       3.33213e-11       1.04064e-12       1.93213e-15       4.71018e-14       4.89716e-01       3.99873e-02       4.89716e-01      
 9.90000e-02       4.45959e-11       1.38870e-12       1.92927e-15       6.30727e-14       4.89716e-01       3.99879e-02       4.89716e-01      
 1.08000e-01       5.96695e-11       1.85460e-12       1.92736e-15       8.44440e-14       4.89716e-01       3.99886e-02       4.89716e-01      
 1.17000e-01       7.98133e-11       2.47797e-12       1.92655e-15       1.13034e-13       4.89716e-01       3.99896e-02       4.89716e-01      
 1.26000e-01       1.06715e-10       3.31172e-12       1.92700e-15       1.51265e-13       4.89716e-01       3.99910e-02       4.89716e-01      
 1.35000e-01       1.42617e-10       4.42629e-12       1.92892e-15       2.02368e-13       4.89716e-01       3.99927e-02       4.89716e-01      
 1.44000e-01       1.90498e-10       5.91551e-12       1.93265e-15       2.70638e-13       4.89716e-01       3.99951e-02       4.89716e-01      
 1.53000e-01       2.54301e-10       7.90415e-12       1.93849e-15       3.61792e-13       4.89716e-01       3.99983e-02       4.89716e-01      
 1.62000e-01       3.39234e-10       1.05579e-11       1.94681e-15       4.83414e-13       4.89716e-01       4.00025e-02       4.89716e-01      
 1.71000e-01       4.52161e-10       1.40966e-11       1.95804e-15       6.45555e-13       4.89716e-01       4.00082e-02       4.89716e-01      
 1.80000e-01       6.02100e-10       1.88110e-11       1.97265e-15       8.61510e-13       4.89716e-01       4.00157e-02       4.89716e-01      
 1.89000e-01       8.00865e-10       2.50851e-11       1.99115e-15       1.14881e-12       4.89716e-01       4.00258e-02       4.89716e-01      
 1.98000e-01       1.06386e-09       3.34249e-11       2.01414e-15       1.53053e-12       4.89716e-01       4.00391e-02       4.89716e-01      
 2.07000e-01       1.41108e-09       4.44949e-11       2.04222e-15       2.03691e-12       4.89716e-01       4.00568e-02       4.89716e-01      
 2.16000e-01       1.86837e-09       5.91648e-11       2.07604e-15       2.70741e-12       4.89716e-01       4.00802e-02       4.89716e-01      
 2.25000e-01       2.46885e-09       7.85687e-11       2.11626e-15       3.59335e-12       4.89716e-01       4.01111e-02       4.89716e-01      
 2.34000e-01       3.25474e-09       1.04178e-10       2.16355e-15       4.76101e-12       4.89716e-01       4.01518e-02       4.89716e-01      
 2.43000e-01       4.27942e-09       1.37894e-10       2.21851e-15       6.29545e-12       4.89716e-01       4.02053e-02       4.89716e-01      
 2.52000e-01       5.60967e-09       1.82156e-10       2.28173e-15       8.30504e-12       4.89716e-01       4.02753e-02       4.89716e-01      
 2.61000e-01       7.32824e-09       2.40075e-10       2.35370e-15       1.09265e-11       4.89716e-01       4.03666e-02       4.89716e-01      
 2.70000e-01       9.53646e-09       3.15588e-10       2.43481e-15       1.43305e-11       4.89716e-01       4.04850e-02       4.89716e-01      
 2.79000e-01       1.23568e-08       4.13639e-10       2.52532e-15       1.87277e-11       4.89716e-01       4.06378e-02       4.89716e-01      
 2.88000e-01       1.59350e-08       5.40377e-10       2.62536e-15       2.43738e-11       4.89716e-01       4.08338e-02       4.89716e-01      
 2.97000e-01       2.04420e-08       7.03376e-10       2.73491e-15       3.15748e-11       4.89716e-01       4.10834e-02       4.89716e-01      
 3.06000e-01       2.60749e-08       9.11866e-10       2.85376e-15       4.06893e-11       4.89716e-01       4.13986e-02       4.89716e-01      
 3.15000e-01       3.30564e-08       1.17697e-09       2.98157e-15       5.21291e-11       4.89716e-01       4.17932e-02       4.89716e-01      
 3.24000e-01       4.16328e-08       1.51192e-09       3.11783e-15       6.63549e-11       4.89716e-01       4.22823e-02       4.89716e-01      
 3.33000e-01       5.20708e-08       1.93226e-09       3.26185e-15       8.38684e-11       4.89716e-01       4.28822e-02       4.89716e-01      
 3.42000e-01       6.46508e-08       2.45601e-09       3.41286e-15       1.05199e-10       4.89716e-01       4.36096e-02       4.89716e-01      
 3.51000e-01       7.96598e-08       3.10374e-09       3.56992e-15       1.30887e-10       4.89716e-01       4.44808e-02       4.89716e-01      
 3.60000e-01       9.73817e-08       3.89862e-09       3.73202e-15       1.61461e-10       4.89716e-01       4.55115e-02       4.89716e-01      
 3.69000e-01       1.18087e-07       4.86629e-09       3.89807e-15       1.97419e-10       4.89716e-01       4.67152e-02       4.89716e-01      
 3.78000e-01       1.42027e-07       6.03475e-09       4.06694e-15       2.39209e-10       4.89716e-01       4.81034e-02       4.89716e-01      
 3.87000e-01       1.69424e-07       7.43417e-09       4.23750e-15       2.87213e-10       4.89716e-01       4.96845e-02       4.89716e-01      
 3.96000e-01       2.00479e-07       9.09657e-09       4.40860e-15       3.41739e-10       4.89716e-01       5.14642e-02       4.89716e-01      
 4.05000e-01       2.35371e-07       1.10557e-08       4.57914e-15       4.03024e-10       4.89716e-01       5.34453e-02       4.89716e-01      
 4.14000e-01       2.74269e-07       1.33469e-08       4.74810e-15       4.71238e-10       4.89716e-01       5.56283e-02       4.89716e-01      
 4.23000e-01       3.17345e-07       1.60069e-08       4.91450e-15       5.46497e-10       4.89716e-01       5.80117e-02       4.89716e-01      
 4.32000e-01       3.64785e-07       1.90743e-08       5.07749e-15       6.28877e-10       4.89716e-01       6.05930e-02       4.89716e-01      
 4.41000e-01       4.16793e-07       2.25891e-08       5.23631e-15       7.18432e-10       4.89716e-01       6.33689e-02       4.89716e-01      
 4.50000e-01       4.73596e-07       2.65935e-08       5.39030e-15       8.15202e-10       4.89716e-01       6.63358e-02       4.89716e-01      
 4.59000e-01       5.35437e-07       3.11318e-08       5.53894e-15       9.19228e-10       4.89716e-01       6.94906e-02       4.89716e-01      
 4.68000e-01       6.02570e-07       3.62505e-08       5.68180e-15       1.03055e-09       4.89716e-01       7.28299e-02       4.89716e-01      
 4.77000e-01       6.75240e-07       4.19982e-08       5.81856e-15       1.14923e-09       4.89716e-01       7.63510e-02       4.89716e-01      
 4.86000e-01       7.53680e-07       4.84259e-08       5.94903e-15       1.27531e-09       4.89716e-01       8.00515e-02       4.89716e-01      
 4.95000e-01       8.38086e-07       5.55865e-08       6.07307e-15       1.40885e-09       4.89716e-01       8.39289e-02       4.89716e-01      
 5.04000e-01       9.28617e-07       6.35343e-08       6.19066e-15       1.54992e-09       4.89716e-01       8.79807e-02       4.89716e-01      
 5.13000e-01       1.02537e-06       7.23250e-08       6.30182e-15       1.69855e-09       4.89716e-01       9.22046e-02       4.89716e-01      
 5.22000e-01       1.12841e-06       8.20149e-08       6.40666e-15       1.85479e-09       4.89716e-01       9.65978e-02       4.89716e-01      
 5.31000e-01       1.23770e-06       9.26604e-08       6.50533e-15       2.01867e-09       4.89716e-01       1.01157e-01       4.89716e-01      
 5.40000e-01       1.35316e-06       1.04318e-07       6.59801e-15       2.19019e-09       4.89716e-01       1.05879e-01       4.89716e-01      
 5.49000e-01       1.47468e-06       1.17041e-07       6.68494e-15       2.36935e-09       4.89716e-01       1.10760e-01       4.89716e-01      
 5.58000e-01       1.60204e-06       1.30885e-07       6.76635e-15       2.55613e-09       4.89716e-01       1.15794e-01       4.89716e-01      
 5.67000e-01       1.73501e-06       1.45901e-07       6.84250e-15       2.75047e-09       4.89716e-01       1.20978e-01       4.89716e-01      
 5.76000e-01       1.87330e-06       1.62138e-07       6.91368e-15       2.95231e-09       4.89716e-01       1.26306e-01       4.89716e-01      
 5.85000e-01       2.01661e-06       1.79643e-07       6.98016e-15       3.16157e-09       4.89716e-01       1.31773e-01       4.89716e-01      
 5.94000e-01       2.16458e-06       1.98458e-07       7.04221e-15       3.37817e-09       4.89716e-01       1.37373e-01       4.89716e-01      
 6.03000e-01       2.31686e-06       2.18625e-07       7.10011e-15       3.60199e-09       4.89716e-01       1.43099e-01       4.89716e-01      
 6.12000e-01       2.47307e-06       2.40180e-07       7.15414e-15       3.83291e-09       4.89716e-01       1.48945e-01       4.89716e-01      
 6.21000e-01       2.63286e-06       2.63158e-07       7.20454e-15       4.07082e-09       4.89716e-01       1.54906e-01       4.89716e-01      
 6.30000e-01       2.79585e-06       2.87588e-07       7.25157e-15       4.31559e-09       4.89716e-01       1.60975e-01       4.89716e-01      
 6.39000e-01       2.96169e-06       3.13499e-07       7.29546e-15       4.56708e-09       4.89716e-01       1.67146e-01       4.89716e-01      
 6.48000e-01       3.13004e-06       3.40913e-07       7.33645e-15       4.82517e-09       4.89716e-01       1.73414e-01       4.89716e-01      
 6.57000e-01       3.30056e-06       3.69853e-07       7.37474e-15       5.08973e-09       4.89716e-01       1.79772e-01       4.89716e-01      
 6.66000e-01       3.47296e-06       4.00336e-07       7.41053e-15       5.36061e-09       4.89716e-01       1.86215e-01       4.89716e-01      
 6.75000e-01       3.64694e-06       4.32377e-07       7.44401e-15       5.63771e-09       4.89716e-01       1.92737e-01       4.89716e-01      
 6.84000e-01       3.82225e-06       4.65991e-07       7.47536e-15       5.92090e-09       4.89716e-01       1.99335e-01       4.89716e-01      
 6.93000e-01       3.99863e-06       5.01187e-07       7.50474e-15       6.21007e-09       4.89716e-01       2.06001e-01       4.89716e-01      
 7.02000e-01       4.17587e-06       5.37975e-07       7.53230e-15       6.50511e-09       4.89716e-01       2.12733e-01       4.89716e-01      
 7.11000e-01       4.35377e-06       5.76360e-07       7.55818e-15       6.80592e-09       4.89716e-01       2.19527e-01       4.89716e-01      
 7.20000e-01       4.53215e-06       6.16349e-07       7.58251e-15       7.11241e-09       4.89716e-01       2.26377e-01       4.89716e-01      
 7.29000e-01       4.71084e-06       6.57945e-07       7.60541e-15       7.42448e-09       4.89716e-01       2.33280e-01       4.89716e-01      
 7.38000e-01       4.88970e-06       7.01149e-07       7.62698e-15       7.74207e-09       4.89716e-01       2.40234e-01       4.89716e-01      
 7.47000e-01       5.06861e-06       7.45964e-07       7.64734e-15       8.06510e-09       4.89716e-01       2.47234e-01       4.89716e-01      
 7.56000e-01       5.24744e-06       7.92388e-07       7.66658e-15       8.39351e-09       4.89716e-01       2.54279e-01       4.89716e-01      
 7.65000e-01       5.42610e-06       8.40420e-07       7.68477e-15       8.72724e-09       4.89716e-01       2.61364e-01       4.89716e-01      
 7.74000e-01       5.60450e-06       8.90060e-07       7.70200e-15       9.06625e-09       4.89716e-01       2.68488e-01       4.89716e-01      
 7.83000e-01       5.78255e-06       9.41303e-07       7.71835e-15       9.41050e-09       4.89716e-01       2.75649e-01       4.89716e-01      
 7.92000e-01       5.96020e-06       9.94146e-07       7.73388e-15       9.75994e-09       4.89716e-01       2.82845e-01       4.89716e-01      
 8.01000e-01       6.13737e-06       1.04859e-06       7.74864e-15       1.01146e-08       4.89716e-01       2.90072e-01       4.89716e-01      
 8.10000e-01       6.31402e-06       1.10462e-06       7.76270e-15       1.04743e-08       4.89716e-01       2.97331e-01       4.89716e-01      
 8.19000e-01       6.49009e-06       1.16224e-06       7.77611e-15       1.08393e-08       4.89716e-01       3.04619e-01       4.89716e-01      
 8.28000e-01       6.66555e-06       1.22144e-06       7.78891e-15       1.12093e-08       4.89716e-01       3.11935e-01       4.89716e-01      
 8.37000e-01       6.84034e-06       1.28222e-06       7.80115e-15       1.15845e-08       4.89716e-01       3.19277e-01       4.89716e-01      
 8.46000e-01       7.01445e-06       1.34456e-06       7.81286e-15       1.19648e-08       4.89716e-01       3.26645e-01       4.89716e-01      
 8.55000e-01       7.18783e-06       1.40847e-06       7.82409e-15       1.23502e-08       4.89716e-01       3.34037e-01       4.89716e-01      
 8.64000e-01       7.36046e-06       1.47394e-06       7.83486e-15       1.27408e-08       4.89716e-01       3.41453e-01       4.89716e-01      
 8.73000e-01       7.53231e-06       1.54096e-06       7.84522e-15       1.31366e-08       4.89716e-01       3.48891e-01       4.89716e-01      
 8.82000e-01       7.70336e-06       1.60952e-06       7.85517e-15       1.35375e-08       4.89716e-01       3.56351e-01       4.89716e-01      
 8.91000e-01       7.87357e-06       1.67961e-06       7.86476e-15       1.39437e-08       4.89716e-01       3.63832e-01       4.89716e-01      
 9.00000e-01       8.04294e-06       1.75124e-06       7.87401e-15       1.43551e-08       4.89716e-01       3.71334e-01       4.89716e-01      
 9.09000e-01       8.21144e-06       1.82438e-06       7.88293e-15       1.47719e-08       4.89716e-01       3.78856e-01       4.89716e-01      
 9.18000e-01       8.37904e-06       1.89904e-06       7.89154e-15       1.51939e-08       4.89716e-01       3.86397e-01       4.89716e-01      
 9.27000e-01       8.54574e-06       1.97520e-06       7.89987e-15       1.56213e-08       4.89716e-01       3.93957e-01       4.89716e-01      
 9.36000e-01       8.71150e-06       2.05285e-06       7.90794e-15       1.60542e-08       4.89716e-01       4.01536e-01       4.89716e-01      
 9.45000e-01       8.87631e-06       2.13200e-06       7.91575e-15       1.64925e-08       4.89716e-01       4.09133e-01       4.89716e-01      
 9.54000e-01       9.04015e-06       2.21262e-06       7.92333e-15       1.69363e-08       4.89716e-01       4.16748e-01       4.89716e-01      
 9.63000e-01       9.20301e-06       2.29471e-06       7.93068e-15       1.73858e-08       4.89716e-01       4.24381e-01       4.89716e-01      
 9.72000e-01       9.36485e-06       2.37827e-06       7.93782e-15       1.78409e-08       4.89716e-01       4.32031e-01       4.89716e-01      
 9.81000e-01       9.52567e-06       2.46327e-06       7.94476e-15       1.83017e-08       4.89716e-01       4.39699e-01       4.89716e-01      
 9.90000e-01       9.68545e-06       2.54972e-06       7.95151e-15       1.87683e-08       4.89716e-01       4.47384e-01       4.89716e-01      
 9.99000e-01       9.84416e-06       2.63760e-06       7.95808e-15       1.92407e-08       4.89716e-01       4.55086e-01       4.89716e-01      
 1.00800e+00       1.00018e-05       2.72691e-06       7.96448e-15       1.97192e-08       4.89716e-01       4.62804e-01       4.89716e-01      
 1.01700e+00       1.01583e-05       2.81763e-06       7.97072e-15       2.02036e-08       4.89716e-01       4.70540e-01       4.89716e-01      
 1.02600e+00       1.03137e-05       2.90975e-06       7.97680e-15       2.06942e-08       4.89716e-01       4.78292e-01       4.89716e-01      
 1.03500e+00       1.04680e-05       3.00327e-06       7.98274e-15       2.11910e-08       4.89716e-01       4.86061e-01       4.89716e-01      
 1.04400e+00       1.06212e-05       3.09817e-06       7.98853e-15       2.16941e-08       4.89716e-01       4.93846e-01       4.89716e-01      
 1.05300e+00       1.07731e-05       3.19444e-06       7.99420e-15       2.22036e-08       4.89716e-01       5.01648e-01       4.89716e-01      
 1.06200e+00       1.09239e-05       3.29207e-06       7.99973e-15       2.27196e-08       4.89716e-01       5.09467e-01       4.89716e-01      
 1.07100e+00       1.10734e-05       3.39106e-06       8.00515e-15       2.32422e-08       4.89716e-01       5.17302e-01       4.89716e-01      
 1.08000e+00       1.12218e-05       3.49139e-06       8.01044e-15       2.37716e-08       4.89716e-01       5.25153e-01       4.89716e-01      
 1.08900e+00       1.13689e-05       3.59304e-06       8.01563e-15       2.43078e-08       4.89716e-01       5.33021e-01       4.89716e-01      
 1.09800e+00       1.15147e-05       3.69602e-06       8.02071e-15       2.48510e-08       4.89716e-01       5.40906e-01       4.89716e-01      
 1.10700e+00       1.16592e-05       3.80030e-06       8.02568e-15       2.54013e-08       4.89716e-01       5.48807e-01       4.89716e-01      
 1.11600e+00       1.18025e-05       3.90588e-06       8.03056e-15       2.59588e-08       4.89716e-01       5.56725e-01       4.89716e-01      
 1.12500e+00       1.19445e-05       4.01274e-06       8.03534e-15       2.65237e-08       4.89716e-01       5.64659e-01       4.89716e-01      
 1.13400e+00       1.20851e-05       4.12087e-06       8.04003e-15       2.70961e-08       4.89716e-01       5.72610e-01       4.89716e-01      
 1.14300e+00       1.22244e-05       4.23026e-06       8.04463e-15       2.76761e-08       4.89716e-01       5.80578e-01       4.89716e-01      
 1.15200e+00       1.23623e-05       4.34090e-06       8.04914e-15       2.82640e-08       4.89716e-01       5.88563e-01       4.89716e-01      
 1.16100e+00       1.24989e-05       4.45277e-06       8.05358e-15       2.88599e-08       4.89716e-01       5.96564e-01       4.89716e-01      
 1.17000e+00       1.26341e-05       4.56587e-06       8.05793e-15       2.94639e-08       4.89716e-01       6.04583e-01       4.89716e-01      
 1.17900e+00       1.27678e-05       4.68018e-06       8.06221e-15       3.00762e-08       4.89716e-01       6.12619e-01       4.89716e-01      
 1.18800e+00       1.29002e-05       4.79568e-06       8.06642e-15       3.06970e-08       4.89716e-01       6.20671e-01       4.89716e-01      
 1.19700e+00       1.30312e-05       4.91237e-06       8.07055e-15       3.13265e-08       4.89716e-01       6.28741e-01       4.89716e-01      
 1.20600e+00       1.31607e-05       5.03023e-06       8.07462e-15       3.19649e-08       4.89716e-01       6.36828e-01       4.89716e-01      
 1.21500e+00       1.32887e-05       5.14926e-06       8.07861e-15       3.26123e-08       4.89716e-01       6.44932e-01       4.89716e-01      
