
dc (V)            getData("M0:gm    getData("M0:id    getData("M0:cg    getData("M0:gd    getData("M0:vt    getData("M0:vd    getData("M0:vt

 0.00000e+00       1.22490e-12       5.89848e-14       1.32830e-14       9.53123e-16       5.16524e-01       4.00827e-02       5.16524e-01      
 9.00000e-03       1.64279e-12       7.17976e-14       1.32222e-14       1.27841e-15       5.16524e-01       4.00827e-02       5.16524e-01      
 1.80000e-02       2.20315e-12       8.89812e-14       1.31635e-14       1.71466e-15       5.16524e-01       4.00827e-02       5.16524e-01      
 2.70000e-02       2.95451e-12       1.12026e-13       1.31069e-14       2.29969e-15       5.16524e-01       4.00828e-02       5.16524e-01      
 3.60000e-02       3.96187e-12       1.42928e-13       1.30524e-14       3.08423e-15       5.16524e-01       4.00828e-02       5.16524e-01      
 4.50000e-02       5.31234e-12       1.84366e-13       1.30001e-14       4.13622e-15       5.16524e-01       4.00829e-02       5.16524e-01      
 5.40000e-02       7.12258e-12       2.39926e-13       1.29502e-14       5.54674e-15       5.16524e-01       4.00829e-02       5.16524e-01      
 6.30000e-02       9.54880e-12       3.14415e-13       1.29029e-14       7.43781e-15       5.16524e-01       4.00830e-02       5.16524e-01      
 7.20000e-02       1.28001e-11       4.14272e-13       1.28582e-14       9.97291e-15       5.16524e-01       4.00832e-02       5.16524e-01      
 8.10000e-02       1.71562e-11       5.48121e-13       1.28165e-14       1.33709e-14       5.16524e-01       4.00833e-02       5.16524e-01      
 9.00000e-02       2.29913e-11       7.27508e-13       1.27781e-14       1.79250e-14       5.16524e-01       4.00836e-02       5.16524e-01      
 9.90000e-02       3.08057e-11       9.67886e-13       1.27433e-14       2.40274e-14       5.16524e-01       4.00839e-02       5.16524e-01      
 1.08000e-01       4.12674e-11       1.28993e-12       1.27128e-14       3.22029e-14       5.16524e-01       4.00843e-02       5.16524e-01      
 1.17000e-01       5.52685e-11       1.72129e-12       1.26870e-14       4.31534e-14       5.16524e-01       4.00849e-02       5.16524e-01      
 1.26000e-01       7.39987e-11       2.29891e-12       1.26668e-14       5.78167e-14       5.16524e-01       4.00856e-02       5.16524e-01      
 1.35000e-01       9.90430e-11       3.07216e-12       1.26530e-14       7.74453e-14       5.16524e-01       4.00867e-02       5.16524e-01      
 1.44000e-01       1.32511e-10       4.10689e-12       1.26467e-14       1.03711e-13       5.16524e-01       4.00880e-02       5.16524e-01      
 1.53000e-01       1.77204e-10       5.49094e-12       1.26492e-14       1.38842e-13       5.16524e-01       4.00899e-02       5.16524e-01      
 1.62000e-01       2.36825e-10       7.34121e-12       1.26613e-14       1.85804e-13       5.16524e-01       4.00923e-02       5.16524e-01      
 1.71000e-01       3.16295e-10       9.81318e-12       1.26856e-14       2.48539e-13       5.16524e-01       4.00956e-02       5.16524e-01      
 1.80000e-01       4.22104e-10       1.31133e-11       1.27243e-14       3.32284e-13       5.16524e-01       4.00999e-02       5.16524e-01      
 1.89000e-01       5.62794e-10       1.75154e-11       1.27798e-14       4.43974e-13       5.16524e-01       4.01057e-02       5.16524e-01      
 1.98000e-01       7.49578e-10       2.33816e-11       1.28550e-14       5.92780e-13       5.16524e-01       4.01135e-02       5.16524e-01      
 2.07000e-01       9.97108e-10       3.11896e-11       1.29530e-14       7.90793e-13       5.16524e-01       4.01238e-02       5.16524e-01      
 2.16000e-01       1.32445e-09       4.15684e-11       1.30775e-14       1.05390e-12       5.16524e-01       4.01375e-02       5.16524e-01      
 2.25000e-01       1.75630e-09       5.53426e-11       1.32324e-14       1.40292e-12       5.16524e-01       4.01556e-02       5.16524e-01      
 2.34000e-01       2.32438e-09       7.35896e-11       1.34219e-14       1.86499e-12       5.16524e-01       4.01796e-02       5.16524e-01      
 2.43000e-01       3.06926e-09       9.77108e-11       1.36504e-14       2.47529e-12       5.16524e-01       4.02113e-02       5.16524e-01      
 2.52000e-01       4.04228e-09       1.29519e-10       1.39225e-14       3.27922e-12       5.16524e-01       4.02531e-02       5.16524e-01      
 2.61000e-01       5.30790e-09       1.71348e-10       1.42425e-14       4.33487e-12       5.16524e-01       4.03078e-02       5.16524e-01      
 2.70000e-01       6.94612e-09       2.26178e-10       1.46149e-14       5.71603e-12       5.16524e-01       4.03793e-02       5.16524e-01      
 2.79000e-01       9.05506e-09       2.97788e-10       1.50436e-14       7.51553e-12       5.16524e-01       4.04724e-02       5.16524e-01      
 2.88000e-01       1.17534e-08       3.90935e-10       1.55319e-14       9.84884e-12       5.16524e-01       4.05928e-02       5.16524e-01      
 2.97000e-01       1.51827e-08       5.11540e-10       1.60825e-14       1.28579e-11       5.16524e-01       4.07477e-02       5.16524e-01      
 3.06000e-01       1.95087e-08       6.66911e-10       1.66972e-14       1.67145e-11       5.16524e-01       4.09456e-02       5.16524e-01      
 3.15000e-01       2.49223e-08       8.65957e-10       1.73770e-14       2.16235e-11       5.16524e-01       4.11963e-02       5.16524e-01      
 3.24000e-01       3.16388e-08       1.11942e-09       1.81216e-14       2.78247e-11       5.16524e-01       4.15115e-02       5.16524e-01      
 3.33000e-01       3.98963e-08       1.44008e-09       1.89298e-14       3.55932e-11       5.16524e-01       4.19037e-02       5.16524e-01      
 3.42000e-01       4.99520e-08       1.84294e-09       1.97991e-14       4.52376e-11       5.16524e-01       4.23868e-02       5.16524e-01      
 3.51000e-01       6.20770e-08       2.34542e-09       2.07260e-14       5.70966e-11       5.16524e-01       4.29752e-02       5.16524e-01      
 3.60000e-01       7.65501e-08       2.96737e-09       2.17059e-14       7.15320e-11       5.16524e-01       4.36834e-02       5.16524e-01      
 3.69000e-01       9.36508e-08       3.73120e-09       2.27335e-14       8.89212e-11       5.16524e-01       4.45253e-02       5.16524e-01      
 3.78000e-01       1.13653e-07       4.66179e-09       2.38023e-14       1.09648e-10       5.16524e-01       4.55136e-02       5.16524e-01      
 3.87000e-01       1.36819e-07       5.78645e-09       2.49054e-14       1.34091e-10       5.16524e-01       4.66594e-02       5.16524e-01      
 3.96000e-01       1.63401e-07       7.13479e-09       2.60355e-14       1.62621e-10       5.16524e-01       4.79714e-02       5.16524e-01      
 4.05000e-01       1.93639e-07       8.73863e-09       2.71847e-14       1.95591e-10       5.16524e-01       4.94564e-02       5.16524e-01      
 4.14000e-01       2.27772e-07       1.06320e-08       2.83452e-14       2.33333e-10       5.16524e-01       5.11186e-02       5.16524e-01      
 4.23000e-01       2.66050e-07       1.28510e-08       2.95093e-14       2.76165e-10       5.16524e-01       5.29605e-02       5.16524e-01      
 4.32000e-01       3.08740e-07       1.54341e-08       3.06695e-14       3.24389e-10       5.16524e-01       5.49829e-02       5.16524e-01      
 4.41000e-01       3.56141e-07       1.84224e-08       3.18187e-14       3.78302e-10       5.16524e-01       5.71858e-02       5.16524e-01      
 4.50000e-01       4.08586e-07       2.18598e-08       3.29504e-14       4.38198e-10       5.16524e-01       5.95686e-02       5.16524e-01      
 4.59000e-01       4.66448e-07       2.57932e-08       3.40586e-14       5.04378e-10       5.16524e-01       6.21304e-02       5.16524e-01      
 4.68000e-01       5.30128e-07       3.02733e-08       3.51382e-14       5.77153e-10       5.16524e-01       6.48705e-02       5.16524e-01      
 4.77000e-01       6.00050e-07       3.53542e-08       3.61848e-14       6.56846e-10       5.16524e-01       6.77884e-02       5.16524e-01      
 4.86000e-01       6.76643e-07       4.10942e-08       3.71948e-14       7.43796e-10       5.16524e-01       7.08840e-02       5.16524e-01      
 4.95000e-01       7.60325e-07       4.75551e-08       3.81654e-14       8.38352e-10       5.16524e-01       7.41570e-02       5.16524e-01      
 5.04000e-01       8.51486e-07       5.48025e-08       3.90943e-14       9.40872e-10       5.16524e-01       7.76075e-02       5.16524e-01      
 5.13000e-01       9.50473e-07       6.29053e-08       3.99803e-14       1.05172e-09       5.16524e-01       8.12354e-02       5.16524e-01      
 5.22000e-01       1.05758e-06       7.19354e-08       4.08225e-14       1.17126e-09       5.16524e-01       8.50402e-02       5.16524e-01      
 5.31000e-01       1.17301e-06       8.19667e-08       4.16207e-14       1.29986e-09       5.16524e-01       8.90212e-02       5.16524e-01      
 5.40000e-01       1.29693e-06       9.30751e-08       4.23752e-14       1.43786e-09       5.16524e-01       9.31771e-02       5.16524e-01      
 5.49000e-01       1.42938e-06       1.05337e-07       4.30866e-14       1.58559e-09       5.16524e-01       9.75061e-02       5.16524e-01      
 5.58000e-01       1.57033e-06       1.18829e-07       4.37561e-14       1.74339e-09       5.16524e-01       1.02006e-01       5.16524e-01      
 5.67000e-01       1.71968e-06       1.33628e-07       4.43849e-14       1.91155e-09       5.16524e-01       1.06672e-01       5.16524e-01      
 5.76000e-01       1.87723e-06       1.49808e-07       4.49745e-14       2.09036e-09       5.16524e-01       1.11502e-01       5.16524e-01      
 5.85000e-01       2.04272e-06       1.67442e-07       4.55268e-14       2.28007e-09       5.16524e-01       1.16492e-01       5.16524e-01      
 5.94000e-01       2.21582e-06       1.86600e-07       4.60434e-14       2.48093e-09       5.16524e-01       1.21635e-01       5.16524e-01      
 6.03000e-01       2.39614e-06       2.07348e-07       4.65262e-14       2.69315e-09       5.16524e-01       1.26926e-01       5.16524e-01      
 6.12000e-01       2.58327e-06       2.29751e-07       4.69771e-14       2.91696e-09       5.16524e-01       1.32361e-01       5.16524e-01      
 6.21000e-01       2.77674e-06       2.53866e-07       4.73981e-14       3.15254e-09       5.16524e-01       1.37932e-01       5.16524e-01      
 6.30000e-01       2.97607e-06       2.79750e-07       4.77910e-14       3.40008e-09       5.16524e-01       1.43632e-01       5.16524e-01      
 6.39000e-01       3.18077e-06       3.07452e-07       4.81576e-14       3.65975e-09       5.16524e-01       1.49457e-01       5.16524e-01      
 6.48000e-01       3.39033e-06       3.37018e-07       4.84998e-14       3.93173e-09       5.16524e-01       1.55399e-01       5.16524e-01      
 6.57000e-01       3.60428e-06       3.68491e-07       4.88191e-14       4.21619e-09       5.16524e-01       1.61451e-01       5.16524e-01      
 6.66000e-01       3.82214e-06       4.01907e-07       4.91172e-14       4.51331e-09       5.16524e-01       1.67608e-01       5.16524e-01      
 6.75000e-01       4.04345e-06       4.37300e-07       4.93957e-14       4.82327e-09       5.16524e-01       1.73862e-01       5.16524e-01      
 6.84000e-01       4.26777e-06       4.74698e-07       4.96560e-14       5.14627e-09       5.16524e-01       1.80208e-01       5.16524e-01      
 6.93000e-01       4.49469e-06       5.14127e-07       4.98995e-14       5.48252e-09       5.16524e-01       1.86641e-01       5.16524e-01      
 7.02000e-01       4.72384e-06       5.55609e-07       5.01273e-14       5.83224e-09       5.16524e-01       1.93154e-01       5.16524e-01      
 7.11000e-01       4.95486e-06       5.99162e-07       5.03408e-14       6.19567e-09       5.16524e-01       1.99742e-01       5.16524e-01      
 7.20000e-01       5.18742e-06       6.44801e-07       5.05411e-14       6.57310e-09       5.16524e-01       2.06401e-01       5.16524e-01      
 7.29000e-01       5.42124e-06       6.92539e-07       5.07290e-14       6.96480e-09       5.16524e-01       2.13125e-01       5.16524e-01      
 7.38000e-01       5.65604e-06       7.42386e-07       5.09057e-14       7.37110e-09       5.16524e-01       2.19910e-01       5.16524e-01      
 7.47000e-01       5.89158e-06       7.94350e-07       5.10720e-14       7.79235e-09       5.16524e-01       2.26752e-01       5.16524e-01      
 7.56000e-01       6.12765e-06       8.48436e-07       5.12286e-14       8.22893e-09       5.16524e-01       2.33648e-01       5.16524e-01      
 7.65000e-01       6.36406e-06       9.04649e-07       5.13764e-14       8.68127e-09       5.16524e-01       2.40593e-01       5.16524e-01      
 7.74000e-01       6.60062e-06       9.62990e-07       5.15160e-14       9.14981e-09       5.16524e-01       2.47585e-01       5.16524e-01      
 7.83000e-01       6.83720e-06       1.02346e-06       5.16480e-14       9.63507e-09       5.16524e-01       2.54620e-01       5.16524e-01      
 7.92000e-01       7.07364e-06       1.08606e-06       5.17731e-14       1.01376e-08       5.16524e-01       2.61695e-01       5.16524e-01      
 8.01000e-01       7.30983e-06       1.15078e-06       5.18918e-14       1.06579e-08       5.16524e-01       2.68809e-01       5.16524e-01      
 8.10000e-01       7.54567e-06       1.21764e-06       5.20045e-14       1.11967e-08       5.16524e-01       2.75959e-01       5.16524e-01      
 8.19000e-01       7.78106e-06       1.28661e-06       5.21118e-14       1.17547e-08       5.16524e-01       2.83142e-01       5.16524e-01      
 8.28000e-01       8.01591e-06       1.35769e-06       5.22140e-14       1.23325e-08       5.16524e-01       2.90357e-01       5.16524e-01      
 8.37000e-01       8.25015e-06       1.43089e-06       5.23115e-14       1.29311e-08       5.16524e-01       2.97601e-01       5.16524e-01      
 8.46000e-01       8.48370e-06       1.50619e-06       5.24047e-14       1.35512e-08       5.16524e-01       3.04875e-01       5.16524e-01      
 8.55000e-01       8.71652e-06       1.58359e-06       5.24938e-14       1.41939e-08       5.16524e-01       3.12175e-01       5.16524e-01      
 8.64000e-01       8.94854e-06       1.66309e-06       5.25792e-14       1.48601e-08       5.16524e-01       3.19500e-01       5.16524e-01      
 8.73000e-01       9.17971e-06       1.74467e-06       5.26612e-14       1.55509e-08       5.16524e-01       3.26850e-01       5.16524e-01      
 8.82000e-01       9.40999e-06       1.82832e-06       5.27400e-14       1.62675e-08       5.16524e-01       3.34223e-01       5.16524e-01      
 8.91000e-01       9.63933e-06       1.91404e-06       5.28157e-14       1.70112e-08       5.16524e-01       3.41619e-01       5.16524e-01      
 9.00000e-01       9.86769e-06       2.00183e-06       5.28887e-14       1.77834e-08       5.16524e-01       3.49036e-01       5.16524e-01      
 9.09000e-01       1.00950e-05       2.09166e-06       5.29592e-14       1.85855e-08       5.16524e-01       3.56473e-01       5.16524e-01      
 9.18000e-01       1.03213e-05       2.18353e-06       5.30272e-14       1.94192e-08       5.16524e-01       3.63931e-01       5.16524e-01      
 9.27000e-01       1.05465e-05       2.27744e-06       5.30930e-14       2.02861e-08       5.16524e-01       3.71408e-01       5.16524e-01      
 9.36000e-01       1.07706e-05       2.37337e-06       5.31568e-14       2.11882e-08       5.16524e-01       3.78903e-01       5.16524e-01      
 9.45000e-01       1.09935e-05       2.47131e-06       5.32186e-14       2.21275e-08       5.16524e-01       3.86417e-01       5.16524e-01      
 9.54000e-01       1.12152e-05       2.57125e-06       5.32786e-14       2.31062e-08       5.16524e-01       3.93948e-01       5.16524e-01      
 9.63000e-01       1.14357e-05       2.67318e-06       5.33369e-14       2.41267e-08       5.16524e-01       4.01497e-01       5.16524e-01      
 9.72000e-01       1.16550e-05       2.77709e-06       5.33937e-14       2.51915e-08       5.16524e-01       4.09062e-01       5.16524e-01      
 9.81000e-01       1.18729e-05       2.88296e-06       5.34489e-14       2.63035e-08       5.16524e-01       4.16644e-01       5.16524e-01      
 9.90000e-01       1.20895e-05       2.99079e-06       5.35029e-14       2.74658e-08       5.16524e-01       4.24243e-01       5.16524e-01      
 9.99000e-01       1.23048e-05       3.10057e-06       5.35556e-14       2.86815e-08       5.16524e-01       4.31857e-01       5.16524e-01      
 1.00800e+00       1.25186e-05       3.21228e-06       5.36071e-14       2.99545e-08       5.16524e-01       4.39488e-01       5.16524e-01      
 1.01700e+00       1.27311e-05       3.32590e-06       5.36575e-14       3.12885e-08       5.16524e-01       4.47134e-01       5.16524e-01      
 1.02600e+00       1.29421e-05       3.44143e-06       5.37069e-14       3.26879e-08       5.16524e-01       4.54795e-01       5.16524e-01      
 1.03500e+00       1.31515e-05       3.55885e-06       5.37553e-14       3.41575e-08       5.16524e-01       4.62472e-01       5.16524e-01      
 1.04400e+00       1.33595e-05       3.67815e-06       5.38029e-14       3.57022e-08       5.16524e-01       4.70164e-01       5.16524e-01      
 1.05300e+00       1.35659e-05       3.79932e-06       5.38497e-14       3.73278e-08       5.16524e-01       4.77871e-01       5.16524e-01      
 1.06200e+00       1.37706e-05       3.92233e-06       5.38957e-14       3.90405e-08       5.16524e-01       4.85593e-01       5.16524e-01      
 1.07100e+00       1.39738e-05       4.04719e-06       5.39411e-14       4.08469e-08       5.16524e-01       4.93329e-01       5.16524e-01      
 1.08000e+00       1.41752e-05       4.17386e-06       5.39859e-14       4.27546e-08       5.16524e-01       5.01081e-01       5.16524e-01      
 1.08900e+00       1.43749e-05       4.30233e-06       5.40301e-14       4.47717e-08       5.16524e-01       5.08848e-01       5.16524e-01      
 1.09800e+00       1.45729e-05       4.43260e-06       5.40738e-14       4.69072e-08       5.16524e-01       5.16629e-01       5.16524e-01      
 1.10700e+00       1.47691e-05       4.56464e-06       5.41171e-14       4.91712e-08       5.16524e-01       5.24424e-01       5.16524e-01      
 1.11600e+00       1.49634e-05       4.69844e-06       5.41600e-14       5.15746e-08       5.16524e-01       5.32235e-01       5.16524e-01      
 1.12500e+00       1.51559e-05       4.83398e-06       5.42026e-14       5.41295e-08       5.16524e-01       5.40060e-01       5.16524e-01      
 1.13400e+00       1.53465e-05       4.97124e-06       5.42448e-14       5.68495e-08       5.16524e-01       5.47900e-01       5.16524e-01      
 1.14300e+00       1.55351e-05       5.11021e-06       5.42869e-14       5.97496e-08       5.16524e-01       5.55754e-01       5.16524e-01      
 1.15200e+00       1.57216e-05       5.25086e-06       5.43288e-14       6.28462e-08       5.16524e-01       5.63623e-01       5.16524e-01      
 1.16100e+00       1.59062e-05       5.39319e-06       5.43706e-14       6.61579e-08       5.16524e-01       5.71507e-01       5.16524e-01      
 1.17000e+00       1.60886e-05       5.53717e-06       5.44123e-14       6.97053e-08       5.16524e-01       5.79405e-01       5.16524e-01      
 1.17900e+00       1.62689e-05       5.68278e-06       5.44541e-14       7.35112e-08       5.16524e-01       5.87318e-01       5.16524e-01      
 1.18800e+00       1.64470e-05       5.83000e-06       5.44959e-14       7.76013e-08       5.16524e-01       5.95246e-01       5.16524e-01      
 1.19700e+00       1.66228e-05       5.97882e-06       5.45378e-14       8.20042e-08       5.16524e-01       6.03189e-01       5.16524e-01      
 1.20600e+00       1.67963e-05       6.12921e-06       5.45798e-14       8.67518e-08       5.16524e-01       6.11146e-01       5.16524e-01      
 1.21500e+00       1.69674e-05       6.28114e-06       5.46221e-14       9.18800e-08       5.16524e-01       6.19118e-01       5.16524e-01      
