
dc (V)            getData("M0:gm    getData("M0:id    getData("M0:cg    getData("M0:gd    getData("M0:vt    getData("M0:vd    getData("M0:vt

 0.00000e+00       2.53792e-11       8.54471e-13       8.81358e-16       1.96830e-13       5.73052e-01       5.03852e-02       5.73052e-01      
 9.00000e-03       3.33833e-11       1.11726e-12       8.79494e-16       2.58921e-13       5.73052e-01       5.03852e-02       5.73052e-01      
 1.80000e-02       4.39107e-11       1.46292e-12       8.77677e-16       3.40594e-13       5.73052e-01       5.03852e-02       5.73052e-01      
 2.70000e-02       5.77562e-11       1.91758e-12       8.75907e-16       4.48019e-13       5.73052e-01       5.03852e-02       5.73052e-01      
 3.60000e-02       7.59648e-11       2.51559e-12       8.74183e-16       5.89313e-13       5.73052e-01       5.03852e-02       5.73052e-01      
 4.50000e-02       9.99100e-11       3.30211e-12       8.72504e-16       7.75147e-13       5.73052e-01       5.03853e-02       5.73052e-01      
 5.40000e-02       1.31397e-10       4.33654e-12       8.70873e-16       1.01955e-12       5.73052e-01       5.03853e-02       5.73052e-01      
 6.30000e-02       1.72799e-10       5.69693e-12       8.69289e-16       1.34097e-12       5.73052e-01       5.03854e-02       5.73052e-01      
 7.20000e-02       2.27232e-10       7.48591e-12       8.67755e-16       1.76364e-12       5.73052e-01       5.03854e-02       5.73052e-01      
 8.10000e-02       2.98791e-10       9.83835e-12       8.66274e-16       2.31943e-12       5.73052e-01       5.03855e-02       5.73052e-01      
 9.00000e-02       3.92854e-10       1.29315e-11       8.64849e-16       3.05020e-12       5.73052e-01       5.03856e-02       5.73052e-01      
 9.90000e-02       5.16481e-10       1.69982e-11       8.63487e-16       4.01096e-12       5.73052e-01       5.03858e-02       5.73052e-01      
 1.08000e-01       6.78939e-10       2.23444e-11       8.62194e-16       5.27396e-12       5.73052e-01       5.03860e-02       5.73052e-01      
 1.17000e-01       8.92387e-10       2.93717e-11       8.60977e-16       6.93408e-12       5.73052e-01       5.03863e-02       5.73052e-01      
 1.26000e-01       1.17277e-09       3.86076e-11       8.59847e-16       9.11588e-12       5.73052e-01       5.03866e-02       5.73052e-01      
 1.35000e-01       1.54099e-09       5.07444e-11       8.58817e-16       1.19828e-11       5.73052e-01       5.03871e-02       5.73052e-01      
 1.44000e-01       2.02443e-09       6.66903e-11       8.57901e-16       1.57493e-11       5.73052e-01       5.03877e-02       5.73052e-01      
 1.53000e-01       2.65892e-09       8.76362e-11       8.57118e-16       2.06966e-11       5.73052e-01       5.03885e-02       5.73052e-01      
 1.62000e-01       3.49135e-09       1.15143e-10       8.56490e-16       2.71930e-11       5.73052e-01       5.03896e-02       5.73052e-01      
 1.71000e-01       4.58273e-09       1.51255e-10       8.56020e-16       3.57210e-11       5.73052e-01       5.03910e-02       5.73052e-01      
 1.80000e-01       6.01295e-09       1.98646e-10       8.55757e-16       4.69114e-11       5.73052e-01       5.03928e-02       5.73052e-01      
 1.89000e-01       7.88610e-09       2.60814e-10       8.55743e-16       6.15890e-11       5.73052e-01       5.03952e-02       5.73052e-01      
 1.98000e-01       1.03376e-08       3.42327e-10       8.56022e-16       8.08310e-11       5.73052e-01       5.03983e-02       5.73052e-01      
 2.07000e-01       1.35433e-08       4.49148e-10       8.56644e-16       1.06042e-10       5.73052e-01       5.04024e-02       5.73052e-01      
 2.16000e-01       1.77312e-08       5.89047e-10       8.57667e-16       1.39052e-10       5.73052e-01       5.04078e-02       5.73052e-01      
 2.25000e-01       2.31959e-08       7.72132e-10       8.59161e-16       1.82240e-10       5.73052e-01       5.04148e-02       5.73052e-01      
 2.34000e-01       3.03176e-08       1.01153e-09       8.61201e-16       2.38692e-10       5.73052e-01       5.04240e-02       5.73052e-01      
 2.43000e-01       3.95845e-08       1.32427e-09       8.63873e-16       3.12405e-10       5.73052e-01       5.04361e-02       5.73052e-01      
 2.52000e-01       5.16217e-08       1.73235e-09       8.67276e-16       4.08538e-10       5.73052e-01       5.04517e-02       5.73052e-01      
 2.61000e-01       6.72261e-08       2.26414e-09       8.71513e-16       5.33731e-10       5.73052e-01       5.04721e-02       5.73052e-01      
 2.70000e-01       8.74079e-08       2.95612e-09       8.76698e-16       6.96500e-10       5.73052e-01       5.04987e-02       5.73052e-01      
 2.79000e-01       1.13441e-07       3.85500e-09       8.82953e-16       9.07719e-10       5.73052e-01       5.05331e-02       5.73052e-01      
 2.88000e-01       1.46919e-07       5.02035e-09       8.90403e-16       1.18120e-09       5.73052e-01       5.05776e-02       5.73052e-01      
 2.97000e-01       1.89824e-07       6.52778e-09       8.99173e-16       1.53441e-09       5.73052e-01       5.06352e-02       5.73052e-01      
 3.06000e-01       2.44598e-07       8.47274e-09       9.09390e-16       1.98923e-09       5.73052e-01       5.07093e-02       5.73052e-01      
 3.15000e-01       3.14215e-07       1.09750e-08       9.21172e-16       2.57297e-09       5.73052e-01       5.08043e-02       5.73052e-01      
 3.24000e-01       4.02267e-07       1.41839e-08       9.34631e-16       3.31927e-09       5.73052e-01       5.09257e-02       5.73052e-01      
 3.33000e-01       5.13031e-07       1.82839e-08       9.49861e-16       4.26932e-09       5.73052e-01       5.10800e-02       5.73052e-01      
 3.42000e-01       6.51531e-07       2.35015e-08       9.66942e-16       5.47283e-09       5.73052e-01       5.12752e-02       5.73052e-01      
 3.51000e-01       8.23583e-07       3.01120e-08       9.85932e-16       6.98910e-09       5.73052e-01       5.15207e-02       5.73052e-01      
 3.60000e-01       1.03580e-06       3.84464e-08       1.00686e-15       8.88784e-09       5.73052e-01       5.18272e-02       5.73052e-01      
 3.69000e-01       1.29557e-06       4.88990e-08       1.02975e-15       1.12496e-08       5.73052e-01       5.22072e-02       5.73052e-01      
 3.78000e-01       1.61099e-06       6.19337e-08       1.05456e-15       1.41660e-08       5.73052e-01       5.26744e-02       5.73052e-01      
 3.87000e-01       1.99072e-06       7.80898e-08       1.08126e-15       1.77387e-08       5.73052e-01       5.32437e-02       5.73052e-01      
 3.96000e-01       2.44379e-06       9.79866e-08       1.10975e-15       2.20785e-08       5.73052e-01       5.39307e-02       5.73052e-01      
 4.05000e-01       2.97941e-06       1.22326e-07       1.13995e-15       2.73032e-08       5.73052e-01       5.47513e-02       5.73052e-01      
 4.14000e-01       3.60665e-06       1.51891e-07       1.17172e-15       3.35349e-08       5.73052e-01       5.57210e-02       5.73052e-01      
 4.23000e-01       4.33418e-06       1.87546e-07       1.20491e-15       4.08965e-08       5.73052e-01       5.68543e-02       5.73052e-01      
 4.32000e-01       5.17003e-06       2.30231e-07       1.23933e-15       4.95088e-08       5.73052e-01       5.81639e-02       5.73052e-01      
 4.41000e-01       6.12140e-06       2.80954e-07       1.27480e-15       5.94871e-08       5.73052e-01       5.96606e-02       5.73052e-01      
 4.50000e-01       7.19462e-06       3.40782e-07       1.31111e-15       7.09387e-08       5.73052e-01       6.13524e-02       5.73052e-01      
 4.59000e-01       8.39522e-06       4.10839e-07       1.34806e-15       8.39614e-08       5.73052e-01       6.32449e-02       5.73052e-01      
 4.68000e-01       9.72822e-06       4.92293e-07       1.38542e-15       9.86429e-08       5.73052e-01       6.53410e-02       5.73052e-01      
 4.77000e-01       1.11984e-05       5.86359e-07       1.42298e-15       1.15062e-07       5.73052e-01       6.76414e-02       5.73052e-01      
 4.86000e-01       1.28108e-05       6.94291e-07       1.46052e-15       1.33288e-07       5.73052e-01       7.01453e-02       5.73052e-01      
 4.95000e-01       1.45708e-05       8.17395e-07       1.49785e-15       1.53388e-07       5.73052e-01       7.28502e-02       5.73052e-01      
 5.04000e-01       1.64845e-05       9.57026e-07       1.53478e-15       1.75422e-07       5.73052e-01       7.57531e-02       5.73052e-01      
 5.13000e-01       1.85589e-05       1.11460e-06       1.57112e-15       1.99452e-07       5.73052e-01       7.88504e-02       5.73052e-01      
 5.22000e-01       2.08015e-05       1.29159e-06       1.60673e-15       2.25539e-07       5.73052e-01       8.21386e-02       5.73052e-01      
 5.31000e-01       2.32200e-05       1.48955e-06       1.64146e-15       2.53748e-07       5.73052e-01       8.56141e-02       5.73052e-01      
 5.40000e-01       2.58222e-05       1.71010e-06       1.67519e-15       2.84144e-07       5.73052e-01       8.92736e-02       5.73052e-01      
 5.49000e-01       2.86153e-05       1.95492e-06       1.70784e-15       3.16797e-07       5.73052e-01       9.31138e-02       5.73052e-01      
 5.58000e-01       3.16055e-05       2.22577e-06       1.73932e-15       3.51777e-07       5.73052e-01       9.71316e-02       5.73052e-01      
 5.67000e-01       3.47977e-05       2.52443e-06       1.76957e-15       3.89157e-07       5.73052e-01       1.01324e-01       5.73052e-01      
 5.76000e-01       3.81949e-05       2.85274e-06       1.79856e-15       4.29008e-07       5.73052e-01       1.05687e-01       5.73052e-01      
 5.85000e-01       4.17981e-05       3.21256e-06       1.82625e-15       4.71401e-07       5.73052e-01       1.10217e-01       5.73052e-01      
 5.94000e-01       4.56059e-05       3.60572e-06       1.85264e-15       5.16405e-07       5.73052e-01       1.14911e-01       5.73052e-01      
 6.03000e-01       4.96147e-05       4.03407e-06       1.87773e-15       5.64084e-07       5.73052e-01       1.19763e-01       5.73052e-01      
 6.12000e-01       5.38186e-05       4.49937e-06       1.90155e-15       6.14498e-07       5.73052e-01       1.24769e-01       5.73052e-01      
 6.21000e-01       5.82094e-05       5.00336e-06       1.92411e-15       6.67704e-07       5.73052e-01       1.29922e-01       5.73052e-01      
 6.30000e-01       6.27769e-05       5.54767e-06       1.94544e-15       7.23752e-07       5.73052e-01       1.35218e-01       5.73052e-01      
 6.39000e-01       6.75088e-05       6.13384e-06       1.96560e-15       7.82685e-07       5.73052e-01       1.40648e-01       5.73052e-01      
 6.48000e-01       7.23917e-05       6.76328e-06       1.98462e-15       8.44543e-07       5.73052e-01       1.46206e-01       5.73052e-01      
 6.57000e-01       7.74106e-05       7.43730e-06       2.00255e-15       9.09358e-07       5.73052e-01       1.51884e-01       5.73052e-01      
 6.66000e-01       8.25498e-05       8.15704e-06       2.01944e-15       9.77159e-07       5.73052e-01       1.57675e-01       5.73052e-01      
 6.75000e-01       8.77927e-05       8.92351e-06       2.03534e-15       1.04797e-06       5.73052e-01       1.63570e-01       5.73052e-01      
 6.84000e-01       9.31228e-05       9.73757e-06       2.05032e-15       1.12181e-06       5.73052e-01       1.69562e-01       5.73052e-01      
 6.93000e-01       9.85233e-05       1.05999e-05       2.06441e-15       1.19869e-06       5.73052e-01       1.75642e-01       5.73052e-01      
 7.02000e-01       1.03978e-04       1.15111e-05       2.07767e-15       1.27862e-06       5.73052e-01       1.81802e-01       5.73052e-01      
 7.11000e-01       1.09471e-04       1.24716e-05       2.09016e-15       1.36162e-06       5.73052e-01       1.88034e-01       5.73052e-01      
 7.20000e-01       1.14987e-04       1.34817e-05       2.10192e-15       1.44769e-06       5.73052e-01       1.94331e-01       5.73052e-01      
 7.29000e-01       1.20511e-04       1.45414e-05       2.11300e-15       1.53683e-06       5.73052e-01       2.00685e-01       5.73052e-01      
 7.38000e-01       1.26031e-04       1.56509e-05       2.12344e-15       1.62906e-06       5.73052e-01       2.07089e-01       5.73052e-01      
 7.47000e-01       1.31534e-04       1.68099e-05       2.13329e-15       1.72438e-06       5.73052e-01       2.13535e-01       5.73052e-01      
 7.56000e-01       1.37009e-04       1.80184e-05       2.14259e-15       1.82280e-06       5.73052e-01       2.20018e-01       5.73052e-01      
 7.65000e-01       1.42445e-04       1.92760e-05       2.15137e-15       1.92431e-06       5.73052e-01       2.26531e-01       5.73052e-01      
 7.74000e-01       1.47834e-04       2.05823e-05       2.15968e-15       2.02894e-06       5.73052e-01       2.33068e-01       5.73052e-01      
 7.83000e-01       1.53167e-04       2.19368e-05       2.16754e-15       2.13669e-06       5.73052e-01       2.39625e-01       5.73052e-01      
 7.92000e-01       1.58437e-04       2.33391e-05       2.17498e-15       2.24757e-06       5.73052e-01       2.46195e-01       5.73052e-01      
 8.01000e-01       1.63638e-04       2.47885e-05       2.18204e-15       2.36159e-06       5.73052e-01       2.52774e-01       5.73052e-01      
 8.10000e-01       1.68766e-04       2.62844e-05       2.18874e-15       2.47878e-06       5.73052e-01       2.59359e-01       5.73052e-01      
 8.19000e-01       1.73815e-04       2.78260e-05       2.19511e-15       2.59915e-06       5.73052e-01       2.65945e-01       5.73052e-01      
 8.28000e-01       1.78782e-04       2.94128e-05       2.20117e-15       2.72272e-06       5.73052e-01       2.72529e-01       5.73052e-01      
 8.37000e-01       1.83664e-04       3.10439e-05       2.20694e-15       2.84952e-06       5.73052e-01       2.79107e-01       5.73052e-01      
 8.46000e-01       1.88458e-04       3.27185e-05       2.21244e-15       2.97958e-06       5.73052e-01       2.85676e-01       5.73052e-01      
 8.55000e-01       1.93164e-04       3.44358e-05       2.21769e-15       3.11293e-06       5.73052e-01       2.92235e-01       5.73052e-01      
 8.64000e-01       1.97779e-04       3.61952e-05       2.22271e-15       3.24960e-06       5.73052e-01       2.98780e-01       5.73052e-01      
 8.73000e-01       2.02303e-04       3.79956e-05       2.22750e-15       3.38964e-06       5.73052e-01       3.05310e-01       5.73052e-01      
 8.82000e-01       2.06735e-04       3.98363e-05       2.23209e-15       3.53308e-06       5.73052e-01       3.11823e-01       5.73052e-01      
 8.91000e-01       2.11075e-04       4.17166e-05       2.23649e-15       3.67998e-06       5.73052e-01       3.18316e-01       5.73052e-01      
 9.00000e-01       2.15323e-04       4.36354e-05       2.24072e-15       3.83038e-06       5.73052e-01       3.24789e-01       5.73052e-01      
 9.09000e-01       2.19480e-04       4.55921e-05       2.24477e-15       3.98433e-06       5.73052e-01       3.31241e-01       5.73052e-01      
 9.18000e-01       2.23545e-04       4.75858e-05       2.24867e-15       4.14189e-06       5.73052e-01       3.37670e-01       5.73052e-01      
 9.27000e-01       2.27520e-04       4.96156e-05       2.25243e-15       4.30313e-06       5.73052e-01       3.44075e-01       5.73052e-01      
 9.36000e-01       2.31405e-04       5.16809e-05       2.25604e-15       4.46812e-06       5.73052e-01       3.50457e-01       5.73052e-01      
 9.45000e-01       2.35201e-04       5.37806e-05       2.25954e-15       4.63691e-06       5.73052e-01       3.56813e-01       5.73052e-01      
 9.54000e-01       2.38909e-04       5.59142e-05       2.26292e-15       4.80959e-06       5.73052e-01       3.63144e-01       5.73052e-01      
 9.63000e-01       2.42531e-04       5.80808e-05       2.26618e-15       4.98623e-06       5.73052e-01       3.69449e-01       5.73052e-01      
 9.72000e-01       2.46067e-04       6.02795e-05       2.26935e-15       5.16692e-06       5.73052e-01       3.75728e-01       5.73052e-01      
 9.81000e-01       2.49518e-04       6.25097e-05       2.27243e-15       5.35174e-06       5.73052e-01       3.81980e-01       5.73052e-01      
 9.90000e-01       2.52886e-04       6.47706e-05       2.27543e-15       5.54080e-06       5.73052e-01       3.88206e-01       5.73052e-01      
 9.99000e-01       2.56172e-04       6.70614e-05       2.27834e-15       5.73417e-06       5.73052e-01       3.94406e-01       5.73052e-01      
 1.00800e+00       2.59377e-04       6.93814e-05       2.28119e-15       5.93198e-06       5.73052e-01       4.00578e-01       5.73052e-01      
 1.01700e+00       2.62501e-04       7.17300e-05       2.28398e-15       6.13433e-06       5.73052e-01       4.06725e-01       5.73052e-01      
 1.02600e+00       2.65547e-04       7.41062e-05       2.28671e-15       6.34132e-06       5.73052e-01       4.12845e-01       5.73052e-01      
 1.03500e+00       2.68516e-04       7.65096e-05       2.28940e-15       6.55308e-06       5.73052e-01       4.18938e-01       5.73052e-01      
 1.04400e+00       2.71407e-04       7.89393e-05       2.29205e-15       6.76974e-06       5.73052e-01       4.25006e-01       5.73052e-01      
 1.05300e+00       2.74224e-04       8.13947e-05       2.29466e-15       6.99142e-06       5.73052e-01       4.31048e-01       5.73052e-01      
 1.06200e+00       2.76966e-04       8.38751e-05       2.29725e-15       7.21827e-06       5.73052e-01       4.37064e-01       5.73052e-01      
 1.07100e+00       2.79634e-04       8.63798e-05       2.29981e-15       7.45042e-06       5.73052e-01       4.43055e-01       5.73052e-01      
 1.08000e+00       2.82231e-04       8.89083e-05       2.30237e-15       7.68803e-06       5.73052e-01       4.49021e-01       5.73052e-01      
 1.08900e+00       2.84756e-04       9.14598e-05       2.30492e-15       7.93125e-06       5.73052e-01       4.54963e-01       5.73052e-01      
 1.09800e+00       2.87211e-04       9.40337e-05       2.30747e-15       8.18026e-06       5.73052e-01       4.60880e-01       5.73052e-01      
 1.10700e+00       2.89596e-04       9.66294e-05       2.31003e-15       8.43521e-06       5.73052e-01       4.66774e-01       5.73052e-01      
 1.11600e+00       2.91914e-04       9.92462e-05       2.31260e-15       8.69630e-06       5.73052e-01       4.72643e-01       5.73052e-01      
 1.12500e+00       2.94163e-04       1.01884e-04       2.31520e-15       8.96371e-06       5.73052e-01       4.78490e-01       5.73052e-01      
 1.13400e+00       2.96346e-04       1.04541e-04       2.31784e-15       9.23764e-06       5.73052e-01       4.84315e-01       5.73052e-01      
 1.14300e+00       2.98464e-04       1.07218e-04       2.32051e-15       9.51830e-06       5.73052e-01       4.90117e-01       5.73052e-01      
 1.15200e+00       3.00516e-04       1.09913e-04       2.32323e-15       9.80590e-06       5.73052e-01       4.95897e-01       5.73052e-01      
 1.16100e+00       3.02504e-04       1.12627e-04       2.32601e-15       1.01007e-05       5.73052e-01       5.01656e-01       5.73052e-01      
 1.17000e+00       3.04428e-04       1.15358e-04       2.32886e-15       1.04029e-05       5.73052e-01       5.07394e-01       5.73052e-01      
 1.17900e+00       3.06290e-04       1.18106e-04       2.33178e-15       1.07127e-05       5.73052e-01       5.13112e-01       5.73052e-01      
 1.18800e+00       3.08090e-04       1.20871e-04       2.33480e-15       1.10304e-05       5.73052e-01       5.18809e-01       5.73052e-01      
 1.19700e+00       3.09829e-04       1.23652e-04       2.33791e-15       1.13564e-05       5.73052e-01       5.24488e-01       5.73052e-01      
 1.20600e+00       3.11506e-04       1.26448e-04       2.34112e-15       1.16908e-05       5.73052e-01       5.30147e-01       5.73052e-01      
 1.21500e+00       3.13124e-04       1.29259e-04       2.34446e-15       1.20340e-05       5.73052e-01       5.35787e-01       5.73052e-01      
