
dc (V)            getData("M0:gm    getData("M0:id    getData("M0:cg    getData("M0:gd    getData("M0:vt    getData("M0:vd    getData("M0:vt

 0.00000e+00       1.35543e-11       4.47949e-13       3.61461e-16       6.12224e-14       5.21888e-01       4.71252e-02       5.21888e-01      
 9.00000e-03       1.80133e-11       5.88250e-13       3.60532e-16       8.13702e-14       5.21888e-01       4.71252e-02       5.21888e-01      
 1.80000e-02       2.39381e-11       7.75092e-13       3.59632e-16       1.08145e-13       5.21888e-01       4.71252e-02       5.21888e-01      
 2.70000e-02       3.18103e-11       1.02373e-12       3.58760e-16       1.43726e-13       5.21888e-01       4.71252e-02       5.21888e-01      
 3.60000e-02       4.22688e-11       1.35444e-12       3.57919e-16       1.91007e-13       5.21888e-01       4.71253e-02       5.21888e-01      
 4.50000e-02       5.61623e-11       1.79414e-12       3.57110e-16       2.53830e-13       5.21888e-01       4.71254e-02       5.21888e-01      
 5.40000e-02       7.46170e-11       2.37859e-12       3.56334e-16       3.37300e-13       5.21888e-01       4.71255e-02       5.21888e-01      
 6.30000e-02       9.91273e-11       3.15527e-12       3.55595e-16       4.48191e-13       5.21888e-01       4.71256e-02       5.21888e-01      
 7.20000e-02       1.31676e-10       4.18722e-12       3.54896e-16       5.95500e-13       5.21888e-01       4.71257e-02       5.21888e-01      
 8.10000e-02       1.74890e-10       5.55810e-12       3.54243e-16       7.91165e-13       5.21888e-01       4.71259e-02       5.21888e-01      
 9.00000e-02       2.32257e-10       7.37892e-12       3.53640e-16       1.05102e-12       5.21888e-01       4.71262e-02       5.21888e-01      
 9.90000e-02       3.08391e-10       9.79693e-12       3.53095e-16       1.39609e-12       5.21888e-01       4.71266e-02       5.21888e-01      
 1.08000e-01       4.09406e-10       1.30074e-11       3.52618e-16       1.85422e-12       5.21888e-01       4.71270e-02       5.21888e-01      
 1.17000e-01       5.43393e-10       1.72691e-11       3.52218e-16       2.46233e-12       5.21888e-01       4.71277e-02       5.21888e-01      
 1.26000e-01       7.21035e-10       2.29248e-11       3.51906e-16       3.26933e-12       5.21888e-01       4.71285e-02       5.21888e-01      
 1.35000e-01       9.56415e-10       3.04282e-11       3.51690e-16       4.33991e-12       5.21888e-01       4.71297e-02       5.21888e-01      
 1.44000e-01       1.26817e-09       4.03793e-11       3.51601e-16       5.75966e-12       5.21888e-01       4.71311e-02       5.21888e-01      
 1.53000e-01       1.68085e-09       5.35713e-11       3.51661e-16       7.64168e-12       5.21888e-01       4.71331e-02       5.21888e-01      
 1.62000e-01       2.22673e-09       7.10519e-11       3.51896e-16       1.01353e-11       5.21888e-01       4.71357e-02       5.21888e-01      
 1.71000e-01       2.94822e-09       9.42028e-11       3.52337e-16       1.34375e-11       5.21888e-01       4.71392e-02       5.21888e-01      
 1.80000e-01       3.90090e-09       1.24845e-10       3.53022e-16       1.78076e-11       5.21888e-01       4.71438e-02       5.21888e-01      
 1.89000e-01       5.15745e-09       1.65372e-10       3.53992e-16       2.35866e-11       5.21888e-01       4.71498e-02       5.21888e-01      
 1.98000e-01       6.81266e-09       2.18929e-10       3.55294e-16       3.12219e-11       5.21888e-01       4.71579e-02       5.21888e-01      
 2.07000e-01       8.98971e-09       2.89638e-10       3.56982e-16       4.12992e-11       5.21888e-01       4.71684e-02       5.21888e-01      
 2.16000e-01       1.18481e-08       3.82884e-10       3.59114e-16       5.45835e-11       5.21888e-01       4.71824e-02       5.21888e-01      
 2.25000e-01       1.55935e-08       5.05692e-10       3.61755e-16       7.20703e-11       5.21888e-01       4.72007e-02       5.21888e-01      
 2.34000e-01       2.04895e-08       6.67186e-10       3.64974e-16       9.50507e-11       5.21888e-01       4.72248e-02       5.21888e-01      
 2.43000e-01       2.68723e-08       8.79183e-10       3.68842e-16       1.25191e-10       5.21888e-01       4.72565e-02       5.21888e-01      
 2.52000e-01       3.51673e-08       1.15691e-09       3.73431e-16       1.64633e-10       5.21888e-01       4.72978e-02       5.21888e-01      
 2.61000e-01       4.59089e-08       1.51991e-09       3.78815e-16       2.16109e-10       5.21888e-01       4.73518e-02       5.21888e-01      
 2.70000e-01       5.97619e-08       1.99311e-09       3.85061e-16       2.83083e-10       5.21888e-01       4.74220e-02       5.21888e-01      
 2.79000e-01       7.75447e-08       2.60807e-09       3.92234e-16       3.69910e-10       5.21888e-01       4.75131e-02       5.21888e-01      
 2.88000e-01       1.00253e-07       3.40453e-09       4.00388e-16       4.82010e-10       5.21888e-01       4.76306e-02       5.21888e-01      
 2.97000e-01       1.29083e-07       4.43208e-09       4.09569e-16       6.26052e-10       5.21888e-01       4.77815e-02       5.21888e-01      
 3.06000e-01       1.65447e-07       5.75204e-09       4.19809e-16       8.10137e-10       5.21888e-01       4.79742e-02       5.21888e-01      
 3.15000e-01       2.10986e-07       7.43946e-09       4.31123e-16       1.04395e-09       5.21888e-01       4.82188e-02       5.21888e-01      
 3.24000e-01       2.67574e-07       9.58524e-09       4.43513e-16       1.33889e-09       5.21888e-01       4.85271e-02       5.21888e-01      
 3.33000e-01       3.37299e-07       1.22981e-08       4.56964e-16       1.70805e-09       5.21888e-01       4.89125e-02       5.21888e-01      
 3.42000e-01       4.22441e-07       1.57065e-08       4.71442e-16       2.16619e-09       5.21888e-01       4.93902e-02       5.21888e-01      
 3.51000e-01       5.25420e-07       1.99602e-08       4.86896e-16       2.72948e-09       5.21888e-01       4.99764e-02       5.21888e-01      
 3.60000e-01       6.48733e-07       2.52308e-08       5.03260e-16       3.41515e-09       5.21888e-01       5.06884e-02       5.21888e-01      
 3.69000e-01       7.94871e-07       3.17128e-08       5.20453e-16       4.24090e-09       5.21888e-01       5.15437e-02       5.21888e-01      
 3.78000e-01       9.66228e-07       3.96226e-08       5.38379e-16       5.22432e-09       5.21888e-01       5.25592e-02       5.21888e-01      
 3.87000e-01       1.16501e-06       4.91974e-08       5.56931e-16       6.38212e-09       5.21888e-01       5.37505e-02       5.21888e-01      
 3.96000e-01       1.39318e-06       6.06932e-08       5.75995e-16       7.72949e-09       5.21888e-01       5.51313e-02       5.21888e-01      
 4.05000e-01       1.65237e-06       7.43821e-08       5.95449e-16       9.27949e-09       5.21888e-01       5.67126e-02       5.21888e-01      
 4.14000e-01       1.94393e-06       9.05497e-08       6.15167e-16       1.10427e-08       5.21888e-01       5.85022e-02       5.21888e-01      
 4.23000e-01       2.26896e-06       1.09493e-07       6.35026e-16       1.30272e-08       5.21888e-01       6.05052e-02       5.21888e-01      
 4.32000e-01       2.62838e-06       1.31516e-07       6.54902e-16       1.52384e-08       5.21888e-01       6.27235e-02       5.21888e-01      
 4.41000e-01       3.02309e-06       1.56934e-07       6.74676e-16       1.76797e-08       5.21888e-01       6.51568e-02       5.21888e-01      
 4.50000e-01       3.45405e-06       1.86069e-07       6.94238e-16       2.03531e-08       5.21888e-01       6.78028e-02       5.21888e-01      
 4.59000e-01       3.92240e-06       2.19251e-07       7.13486e-16       2.32590e-08       5.21888e-01       7.06580e-02       5.21888e-01      
 4.68000e-01       4.42948e-06       2.56823e-07       7.32328e-16       2.63978e-08       5.21888e-01       7.37182e-02       5.21888e-01      
 4.77000e-01       4.97684e-06       2.99141e-07       7.50683e-16       2.97693e-08       5.21888e-01       7.69787e-02       5.21888e-01      
 4.86000e-01       5.56617e-06       3.46575e-07       7.68482e-16       3.33736e-08       5.21888e-01       8.04352e-02       5.21888e-01      
 4.95000e-01       6.19922e-06       3.99509e-07       7.85670e-16       3.72113e-08       5.21888e-01       8.40833e-02       5.21888e-01      
 5.04000e-01       6.87765e-06       4.58346e-07       8.02201e-16       4.12832e-08       5.21888e-01       8.79190e-02       5.21888e-01      
 5.13000e-01       7.60293e-06       5.23500e-07       8.18043e-16       4.55903e-08       5.21888e-01       9.19386e-02       5.21888e-01      
 5.22000e-01       8.37620e-06       5.95399e-07       8.33174e-16       5.01341e-08       5.21888e-01       9.61381e-02       5.21888e-01      
 5.31000e-01       9.19819e-06       6.74478e-07       8.47580e-16       5.49159e-08       5.21888e-01       1.00514e-01       5.21888e-01      
 5.40000e-01       1.00691e-05       7.61176e-07       8.61259e-16       5.99371e-08       5.21888e-01       1.05062e-01       5.21888e-01      
 5.49000e-01       1.09887e-05       8.55934e-07       8.74213e-16       6.51987e-08       5.21888e-01       1.09778e-01       5.21888e-01      
 5.58000e-01       1.19561e-05       9.59186e-07       8.86454e-16       7.07015e-08       5.21888e-01       1.14658e-01       5.21888e-01      
 5.67000e-01       1.29698e-05       1.07135e-06       8.97998e-16       7.64455e-08       5.21888e-01       1.19695e-01       5.21888e-01      
 5.76000e-01       1.40278e-05       1.19285e-06       9.08864e-16       8.24305e-08       5.21888e-01       1.24886e-01       5.21888e-01      
 5.85000e-01       1.51278e-05       1.32406e-06       9.19078e-16       8.86554e-08       5.21888e-01       1.30223e-01       5.21888e-01      
 5.94000e-01       1.62669e-05       1.46535e-06       9.28665e-16       9.51186e-08       5.21888e-01       1.35700e-01       5.21888e-01      
 6.03000e-01       1.74418e-05       1.61705e-06       9.37655e-16       1.01818e-07       5.21888e-01       1.41310e-01       5.21888e-01      
 6.12000e-01       1.86492e-05       1.77948e-06       9.46077e-16       1.08751e-07       5.21888e-01       1.47046e-01       5.21888e-01      
 6.21000e-01       1.98854e-05       1.95290e-06       9.53960e-16       1.15913e-07       5.21888e-01       1.52900e-01       5.21888e-01      
 6.30000e-01       2.11466e-05       2.13757e-06       9.61337e-16       1.23302e-07       5.21888e-01       1.58865e-01       5.21888e-01      
 6.39000e-01       2.24290e-05       2.33369e-06       9.68237e-16       1.30912e-07       5.21888e-01       1.64933e-01       5.21888e-01      
 6.48000e-01       2.37290e-05       2.54143e-06       9.74689e-16       1.38740e-07       5.21888e-01       1.71096e-01       5.21888e-01      
 6.57000e-01       2.50429e-05       2.76093e-06       9.80723e-16       1.46781e-07       5.21888e-01       1.77346e-01       5.21888e-01      
 6.66000e-01       2.63671e-05       2.99231e-06       9.86366e-16       1.55029e-07       5.21888e-01       1.83677e-01       5.21888e-01      
 6.75000e-01       2.76983e-05       3.23564e-06       9.91644e-16       1.63479e-07       5.21888e-01       1.90080e-01       5.21888e-01      
 6.84000e-01       2.90335e-05       3.49097e-06       9.96584e-16       1.72127e-07       5.21888e-01       1.96548e-01       5.21888e-01      
 6.93000e-01       3.03696e-05       3.75832e-06       1.00121e-15       1.80966e-07       5.21888e-01       2.03075e-01       5.21888e-01      
 7.02000e-01       3.17042e-05       4.03768e-06       1.00554e-15       1.89993e-07       5.21888e-01       2.09654e-01       5.21888e-01      
 7.11000e-01       3.30346e-05       4.32904e-06       1.00960e-15       1.99201e-07       5.21888e-01       2.16279e-01       5.21888e-01      
 7.20000e-01       3.43589e-05       4.63235e-06       1.01341e-15       2.08587e-07       5.21888e-01       2.22945e-01       5.21888e-01      
 7.29000e-01       3.56749e-05       4.94754e-06       1.01699e-15       2.18144e-07       5.21888e-01       2.29645e-01       5.21888e-01      
 7.38000e-01       3.69811e-05       5.27453e-06       1.02035e-15       2.27869e-07       5.21888e-01       2.36375e-01       5.21888e-01      
 7.47000e-01       3.82760e-05       5.61322e-06       1.02352e-15       2.37757e-07       5.21888e-01       2.43130e-01       5.21888e-01      
 7.56000e-01       3.95582e-05       5.96350e-06       1.02650e-15       2.47805e-07       5.21888e-01       2.49905e-01       5.21888e-01      
 7.65000e-01       4.08267e-05       6.32527e-06       1.02931e-15       2.58007e-07       5.21888e-01       2.56698e-01       5.21888e-01      
 7.74000e-01       4.20805e-05       6.69838e-06       1.03196e-15       2.68360e-07       5.21888e-01       2.63503e-01       5.21888e-01      
 7.83000e-01       4.33188e-05       7.08270e-06       1.03447e-15       2.78860e-07       5.21888e-01       2.70318e-01       5.21888e-01      
 7.92000e-01       4.45410e-05       7.47810e-06       1.03684e-15       2.89505e-07       5.21888e-01       2.77140e-01       5.21888e-01      
 8.01000e-01       4.57466e-05       7.88442e-06       1.03908e-15       3.00292e-07       5.21888e-01       2.83966e-01       5.21888e-01      
 8.10000e-01       4.69352e-05       8.30151e-06       1.04122e-15       3.11216e-07       5.21888e-01       2.90792e-01       5.21888e-01      
 8.19000e-01       4.81064e-05       8.72922e-06       1.04324e-15       3.22276e-07       5.21888e-01       2.97618e-01       5.21888e-01      
 8.28000e-01       4.92601e-05       9.16738e-06       1.04517e-15       3.33469e-07       5.21888e-01       3.04441e-01       5.21888e-01      
 8.37000e-01       5.03960e-05       9.61585e-06       1.04700e-15       3.44792e-07       5.21888e-01       3.11260e-01       5.21888e-01      
 8.46000e-01       5.15140e-05       1.00745e-05       1.04875e-15       3.56244e-07       5.21888e-01       3.18072e-01       5.21888e-01      
 8.55000e-01       5.26142e-05       1.05431e-05       1.05043e-15       3.67823e-07       5.21888e-01       3.24875e-01       5.21888e-01      
 8.64000e-01       5.36965e-05       1.10215e-05       1.05203e-15       3.79527e-07       5.21888e-01       3.31670e-01       5.21888e-01      
 8.73000e-01       5.47610e-05       1.15095e-05       1.05356e-15       3.91354e-07       5.21888e-01       3.38455e-01       5.21888e-01      
 8.82000e-01       5.58076e-05       1.20071e-05       1.05502e-15       4.03303e-07       5.21888e-01       3.45228e-01       5.21888e-01      
 8.91000e-01       5.68366e-05       1.25140e-05       1.05643e-15       4.15373e-07       5.21888e-01       3.51990e-01       5.21888e-01      
 9.00000e-01       5.78480e-05       1.30301e-05       1.05779e-15       4.27562e-07       5.21888e-01       3.58738e-01       5.21888e-01      
 9.09000e-01       5.88419e-05       1.35552e-05       1.05909e-15       4.39870e-07       5.21888e-01       3.65473e-01       5.21888e-01      
 9.18000e-01       5.98185e-05       1.40892e-05       1.06035e-15       4.52295e-07       5.21888e-01       3.72194e-01       5.21888e-01      
 9.27000e-01       6.07780e-05       1.46319e-05       1.06156e-15       4.64837e-07       5.21888e-01       3.78901e-01       5.21888e-01      
 9.36000e-01       6.17205e-05       1.51831e-05       1.06273e-15       4.77495e-07       5.21888e-01       3.85592e-01       5.21888e-01      
 9.45000e-01       6.26461e-05       1.57427e-05       1.06386e-15       4.90268e-07       5.21888e-01       3.92269e-01       5.21888e-01      
 9.54000e-01       6.35551e-05       1.63106e-05       1.06495e-15       5.03157e-07       5.21888e-01       3.98930e-01       5.21888e-01      
 9.63000e-01       6.44476e-05       1.68866e-05       1.06602e-15       5.16161e-07       5.21888e-01       4.05576e-01       5.21888e-01      
 9.72000e-01       6.53237e-05       1.74706e-05       1.06704e-15       5.29279e-07       5.21888e-01       4.12206e-01       5.21888e-01      
 9.81000e-01       6.61837e-05       1.80624e-05       1.06804e-15       5.42512e-07       5.21888e-01       4.18821e-01       5.21888e-01      
 9.90000e-01       6.70277e-05       1.86618e-05       1.06901e-15       5.55859e-07       5.21888e-01       4.25420e-01       5.21888e-01      
 9.99000e-01       6.78559e-05       1.92688e-05       1.06996e-15       5.69320e-07       5.21888e-01       4.32003e-01       5.21888e-01      
 1.00800e+00       6.86684e-05       1.98831e-05       1.07088e-15       5.82896e-07       5.21888e-01       4.38570e-01       5.21888e-01      
 1.01700e+00       6.94654e-05       2.05047e-05       1.07177e-15       5.96587e-07       5.21888e-01       4.45122e-01       5.21888e-01      
 1.02600e+00       7.02471e-05       2.11334e-05       1.07265e-15       6.10393e-07       5.21888e-01       4.51659e-01       5.21888e-01      
 1.03500e+00       7.10137e-05       2.17691e-05       1.07350e-15       6.24313e-07       5.21888e-01       4.58180e-01       5.21888e-01      
 1.04400e+00       7.17652e-05       2.24116e-05       1.07433e-15       6.38350e-07       5.21888e-01       4.64686e-01       5.21888e-01      
 1.05300e+00       7.25019e-05       2.30608e-05       1.07514e-15       6.52502e-07       5.21888e-01       4.71178e-01       5.21888e-01      
 1.06200e+00       7.32238e-05       2.37165e-05       1.07594e-15       6.66772e-07       5.21888e-01       4.77654e-01       5.21888e-01      
 1.07100e+00       7.39312e-05       2.43787e-05       1.07672e-15       6.81158e-07       5.21888e-01       4.84116e-01       5.21888e-01      
 1.08000e+00       7.46242e-05       2.50472e-05       1.07748e-15       6.95662e-07       5.21888e-01       4.90563e-01       5.21888e-01      
 1.08900e+00       7.53030e-05       2.57219e-05       1.07823e-15       7.10285e-07       5.21888e-01       4.96997e-01       5.21888e-01      
 1.09800e+00       7.59676e-05       2.64026e-05       1.07896e-15       7.25028e-07       5.21888e-01       5.03417e-01       5.21888e-01      
 1.10700e+00       7.66182e-05       2.70892e-05       1.07968e-15       7.39890e-07       5.21888e-01       5.09823e-01       5.21888e-01      
 1.11600e+00       7.72549e-05       2.77816e-05       1.08039e-15       7.54874e-07       5.21888e-01       5.16216e-01       5.21888e-01      
 1.12500e+00       7.78780e-05       2.84797e-05       1.08109e-15       7.69979e-07       5.21888e-01       5.22595e-01       5.21888e-01      
 1.13400e+00       7.84875e-05       2.91833e-05       1.08177e-15       7.85208e-07       5.21888e-01       5.28962e-01       5.21888e-01      
 1.14300e+00       7.90835e-05       2.98924e-05       1.08244e-15       8.00561e-07       5.21888e-01       5.35317e-01       5.21888e-01      
 1.15200e+00       7.96662e-05       3.06067e-05       1.08310e-15       8.16040e-07       5.21888e-01       5.41660e-01       5.21888e-01      
 1.16100e+00       8.02357e-05       3.13263e-05       1.08375e-15       8.31644e-07       5.21888e-01       5.47990e-01       5.21888e-01      
 1.17000e+00       8.07922e-05       3.20509e-05       1.08439e-15       8.47377e-07       5.21888e-01       5.54310e-01       5.21888e-01      
 1.17900e+00       8.13358e-05       3.27804e-05       1.08503e-15       8.63239e-07       5.21888e-01       5.60618e-01       5.21888e-01      
 1.18800e+00       8.18665e-05       3.35148e-05       1.08565e-15       8.79231e-07       5.21888e-01       5.66915e-01       5.21888e-01      
 1.19700e+00       8.23846e-05       3.42540e-05       1.08627e-15       8.95355e-07       5.21888e-01       5.73201e-01       5.21888e-01      
 1.20600e+00       8.28902e-05       3.49977e-05       1.08687e-15       9.11612e-07       5.21888e-01       5.79477e-01       5.21888e-01      
 1.21500e+00       8.33833e-05       3.57459e-05       1.08747e-15       9.28004e-07       5.21888e-01       5.85744e-01       5.21888e-01      
