
dc (V)            getData("M0:gm    getData("M0:id    getData("M0:cg    getData("M0:gd    getData("M0:vt    getData("M0:vd    getData("M0:vt

 0.00000e+00       1.71562e-12       7.16576e-14       2.07871e-15       2.32808e-15       4.89422e-01       3.99299e-02       4.89422e-01      
 9.00000e-03       2.29910e-12       8.87136e-14       2.07045e-15       3.12024e-15       4.89422e-01       3.99299e-02       4.89422e-01      
 1.80000e-02       3.08085e-12       1.11969e-13       2.06253e-15       4.18177e-15       4.89422e-01       3.99300e-02       4.89422e-01      
 2.70000e-02       4.12815e-12       1.43487e-13       2.05497e-15       5.60421e-15       4.89422e-01       3.99300e-02       4.89422e-01      
 3.60000e-02       5.53104e-12       1.86036e-13       2.04780e-15       7.51010e-15       4.89422e-01       3.99301e-02       4.89422e-01      
 4.50000e-02       7.41002e-12       2.43328e-13       2.04105e-15       1.00636e-14       4.89422e-01       3.99302e-02       4.89422e-01      
 5.40000e-02       9.92629e-12       3.20332e-13       2.03475e-15       1.34843e-14       4.89422e-01       3.99303e-02       4.89422e-01      
 6.30000e-02       1.32954e-11       4.23703e-13       2.02897e-15       1.80663e-14       4.89422e-01       3.99305e-02       4.89422e-01      
 7.20000e-02       1.78055e-11       5.62349e-13       2.02375e-15       2.42030e-14       4.89422e-01       3.99307e-02       4.89422e-01      
 8.10000e-02       2.38417e-11       7.48187e-13       2.01918e-15       3.24206e-14       4.89422e-01       3.99311e-02       4.89422e-01      
 9.00000e-02       3.19179e-11       9.97156e-13       2.01535e-15       4.34228e-14       4.89422e-01       3.99315e-02       4.89422e-01      
 9.90000e-02       4.27202e-11       1.33056e-12       2.01237e-15       5.81499e-14       4.89422e-01       3.99320e-02       4.89422e-01      
 1.08000e-01       5.71632e-11       1.77686e-12       2.01040e-15       7.78581e-14       4.89422e-01       3.99328e-02       4.89422e-01      
 1.17000e-01       7.64653e-11       2.37406e-12       2.00959e-15       1.04224e-13       4.89422e-01       3.99338e-02       4.89422e-01      
 1.26000e-01       1.02244e-10       3.17285e-12       2.01010e-15       1.39485e-13       4.89422e-01       3.99351e-02       4.89422e-01      
 1.35000e-01       1.36650e-10       4.24075e-12       2.01215e-15       1.86618e-13       4.89422e-01       3.99369e-02       4.89422e-01      
 1.44000e-01       1.82537e-10       5.66769e-12       2.01611e-15       2.49590e-13       4.89422e-01       3.99393e-02       4.89422e-01      
 1.53000e-01       2.43686e-10       7.57327e-12       2.02229e-15       3.33673e-13       4.89422e-01       3.99425e-02       4.89422e-01      
 1.62000e-01       3.25088e-10       1.01163e-11       2.03108e-15       4.45865e-13       4.89422e-01       3.99468e-02       4.89422e-01      
 1.71000e-01       4.33324e-10       1.35075e-11       2.04292e-15       5.95443e-13       4.89422e-01       3.99525e-02       4.89422e-01      
 1.80000e-01       5.77039e-10       1.80256e-11       2.05831e-15       7.94672e-13       4.89422e-01       3.99601e-02       4.89422e-01      
 1.89000e-01       7.67556e-10       2.40387e-11       2.07781e-15       1.05973e-12       4.89422e-01       3.99702e-02       4.89422e-01      
 1.98000e-01       1.01964e-09       3.20317e-11       2.10201e-15       1.41191e-12       4.89422e-01       3.99836e-02       4.89422e-01      
 2.07000e-01       1.35246e-09       4.26417e-11       2.13156e-15       1.87910e-12       4.89422e-01       4.00014e-02       4.89422e-01      
 2.16000e-01       1.79077e-09       5.67022e-11       2.16714e-15       2.49773e-12       4.89422e-01       4.00249e-02       4.89422e-01      
 2.25000e-01       2.36632e-09       7.53002e-11       2.20944e-15       3.31513e-12       4.89422e-01       4.00560e-02       4.89422e-01      
 2.34000e-01       3.11956e-09       9.98463e-11       2.25915e-15       4.39243e-12       4.89422e-01       4.00970e-02       4.89422e-01      
 2.43000e-01       4.10162e-09       1.32162e-10       2.31692e-15       5.80811e-12       4.89422e-01       4.01508e-02       4.89422e-01      
 2.52000e-01       5.37645e-09       1.74584e-10       2.38336e-15       7.66209e-12       4.89422e-01       4.02213e-02       4.89422e-01      
 2.61000e-01       7.02331e-09       2.30094e-10       2.45896e-15       1.00804e-11       4.89422e-01       4.03132e-02       4.89422e-01      
 2.70000e-01       9.13917e-09       3.02463e-10       2.54414e-15       1.32205e-11       4.89422e-01       4.04324e-02       4.89422e-01      
 2.79000e-01       1.18412e-08       3.96426e-10       2.63918e-15       1.72763e-11       4.89422e-01       4.05861e-02       4.89422e-01      
 2.88000e-01       1.52690e-08       5.17871e-10       2.74419e-15       2.24836e-11       4.89422e-01       4.07833e-02       4.89422e-01      
 2.97000e-01       1.95860e-08       6.74051e-10       2.85915e-15       2.91239e-11       4.89422e-01       4.10343e-02       4.89422e-01      
 3.06000e-01       2.49806e-08       8.73800e-10       2.98384e-15       3.75277e-11       4.89422e-01       4.13513e-02       4.89422e-01      
 3.15000e-01       3.16656e-08       1.12776e-09       3.11789e-15       4.80735e-11       4.89422e-01       4.17480e-02       4.89422e-01      
 3.24000e-01       3.98767e-08       1.44860e-09       3.26077e-15       6.11852e-11       4.89422e-01       4.22397e-02       4.89422e-01      
 3.33000e-01       4.98682e-08       1.85118e-09       3.41176e-15       7.73239e-11       4.89422e-01       4.28424e-02       4.89422e-01      
 3.42000e-01       6.19083e-08       2.35275e-09       3.57002e-15       9.69761e-11       4.89422e-01       4.35730e-02       4.89422e-01      
 3.51000e-01       7.62708e-08       2.97296e-09       3.73459e-15       1.20637e-10       4.89422e-01       4.44478e-02       4.89422e-01      
 3.60000e-01       9.32263e-08       3.73397e-09       3.90441e-15       1.48794e-10       4.89422e-01       4.54823e-02       4.89422e-01      
 3.69000e-01       1.13033e-07       4.66028e-09       4.07832e-15       1.81902e-10       4.89422e-01       4.66901e-02       4.89422e-01      
 3.78000e-01       1.35930e-07       5.77866e-09       4.25515e-15       2.20372e-10       4.89422e-01       4.80823e-02       4.89422e-01      
 3.87000e-01       1.62131e-07       7.11791e-09       4.43370e-15       2.64556e-10       4.89422e-01       4.96676e-02       4.89422e-01      
 3.96000e-01       1.91826e-07       8.70865e-09       4.61278e-15       3.14736e-10       4.89422e-01       5.14513e-02       4.89422e-01      
 4.05000e-01       2.25186e-07       1.05831e-08       4.79124e-15       3.71131e-10       4.89422e-01       5.34362e-02       4.89422e-01      
 4.14000e-01       2.62374e-07       1.27750e-08       4.96800e-15       4.33897e-10       4.89422e-01       5.56226e-02       4.89422e-01      
 4.23000e-01       3.03556e-07       1.53196e-08       5.14206e-15       5.03142e-10       4.89422e-01       5.80093e-02       4.89422e-01      
 4.32000e-01       3.48909e-07       1.82535e-08       5.31252e-15       5.78940e-10       4.89422e-01       6.05935e-02       4.89422e-01      
 4.41000e-01       3.98631e-07       2.16153e-08       5.47858e-15       6.61341e-10       4.89422e-01       6.33719e-02       4.89422e-01      
 4.50000e-01       4.52938e-07       2.54451e-08       5.63957e-15       7.50385e-10       4.89422e-01       6.63412e-02       4.89422e-01      
 4.59000e-01       5.12066e-07       2.97854e-08       5.79494e-15       8.46113e-10       4.89422e-01       6.94979e-02       4.89422e-01      
 4.68000e-01       5.76255e-07       3.46806e-08       5.94424e-15       9.48566e-10       4.89422e-01       7.28390e-02       4.89422e-01      
 4.77000e-01       6.45741e-07       4.01772e-08       6.08716e-15       1.05779e-09       4.89422e-01       7.63617e-02       4.89422e-01      
 4.86000e-01       7.20746e-07       4.63241e-08       6.22347e-15       1.17385e-09       4.89422e-01       8.00635e-02       4.89422e-01      
 4.95000e-01       8.01457e-07       5.31717e-08       6.35306e-15       1.29678e-09       4.89422e-01       8.39420e-02       4.89422e-01      
 5.04000e-01       8.88023e-07       6.07721e-08       6.47589e-15       1.42665e-09       4.89422e-01       8.79948e-02       4.89422e-01      
 5.13000e-01       9.80544e-07       6.91785e-08       6.59199e-15       1.56351e-09       4.89422e-01       9.22196e-02       4.89422e-01      
 5.22000e-01       1.07906e-06       7.84447e-08       6.70149e-15       1.70738e-09       4.89422e-01       9.66134e-02       4.89422e-01      
 5.31000e-01       1.18356e-06       8.86246e-08       6.80452e-15       1.85830e-09       4.89422e-01       1.01173e-01       4.89422e-01      
 5.40000e-01       1.29396e-06       9.97718e-08       6.90130e-15       2.01627e-09       4.89422e-01       1.05895e-01       4.89422e-01      
 5.49000e-01       1.41013e-06       1.11939e-07       6.99206e-15       2.18129e-09       4.89422e-01       1.10776e-01       4.89422e-01      
 5.58000e-01       1.53189e-06       1.25177e-07       7.07705e-15       2.35333e-09       4.89422e-01       1.15811e-01       4.89422e-01      
 5.67000e-01       1.65901e-06       1.39535e-07       7.15656e-15       2.53235e-09       4.89422e-01       1.20995e-01       4.89422e-01      
 5.76000e-01       1.79121e-06       1.55060e-07       7.23087e-15       2.71830e-09       4.89422e-01       1.26323e-01       4.89422e-01      
 5.85000e-01       1.92819e-06       1.71797e-07       7.30026e-15       2.91109e-09       4.89422e-01       1.31789e-01       4.89422e-01      
 5.94000e-01       2.06963e-06       1.89788e-07       7.36504e-15       3.11065e-09       4.89422e-01       1.37387e-01       4.89422e-01      
 6.03000e-01       2.21518e-06       2.09070e-07       7.42548e-15       3.31687e-09       4.89422e-01       1.43113e-01       4.89422e-01      
 6.12000e-01       2.36449e-06       2.29679e-07       7.48187e-15       3.52965e-09       4.89422e-01       1.48958e-01       4.89422e-01      
 6.21000e-01       2.51721e-06       2.51648e-07       7.53448e-15       3.74887e-09       4.89422e-01       1.54918e-01       4.89422e-01      
 6.30000e-01       2.67300e-06       2.75005e-07       7.58357e-15       3.97443e-09       4.89422e-01       1.60986e-01       4.89422e-01      
 6.39000e-01       2.83150e-06       2.99776e-07       7.62939e-15       4.20618e-09       4.89422e-01       1.67156e-01       4.89422e-01      
 6.48000e-01       2.99240e-06       3.25986e-07       7.67217e-15       4.44403e-09       4.89422e-01       1.73422e-01       4.89422e-01      
 6.57000e-01       3.15537e-06       3.53652e-07       7.71213e-15       4.68784e-09       4.89422e-01       1.79779e-01       4.89422e-01      
 6.66000e-01       3.32015e-06       3.82794e-07       7.74949e-15       4.93750e-09       4.89422e-01       1.86220e-01       4.89422e-01      
 6.75000e-01       3.48644e-06       4.13426e-07       7.78444e-15       5.19289e-09       4.89422e-01       1.92741e-01       4.89422e-01      
 6.84000e-01       3.65399e-06       4.45560e-07       7.81717e-15       5.45391e-09       4.89422e-01       1.99336e-01       4.89422e-01      
 6.93000e-01       3.82259e-06       4.79206e-07       7.84784e-15       5.72044e-09       4.89422e-01       2.06001e-01       4.89422e-01      
 7.02000e-01       3.99200e-06       5.14374e-07       7.87660e-15       5.99240e-09       4.89422e-01       2.12732e-01       4.89422e-01      
 7.11000e-01       4.16206e-06       5.51070e-07       7.90362e-15       6.26968e-09       4.89422e-01       2.19523e-01       4.89422e-01      
 7.20000e-01       4.33257e-06       5.89298e-07       7.92902e-15       6.55220e-09       4.89422e-01       2.26372e-01       4.89422e-01      
 7.29000e-01       4.50340e-06       6.29062e-07       7.95292e-15       6.83989e-09       4.89422e-01       2.33274e-01       4.89422e-01      
 7.38000e-01       4.67440e-06       6.70364e-07       7.97545e-15       7.13267e-09       4.89422e-01       2.40226e-01       4.89422e-01      
 7.47000e-01       4.84544e-06       7.13205e-07       7.99671e-15       7.43048e-09       4.89422e-01       2.47225e-01       4.89422e-01      
 7.56000e-01       5.01643e-06       7.57585e-07       8.01679e-15       7.73326e-09       4.89422e-01       2.54268e-01       4.89422e-01      
 7.65000e-01       5.18726e-06       8.03503e-07       8.03579e-15       8.04096e-09       4.89422e-01       2.61352e-01       4.89422e-01      
 7.74000e-01       5.35785e-06       8.50958e-07       8.05378e-15       8.35353e-09       4.89422e-01       2.68475e-01       4.89422e-01      
 7.83000e-01       5.52813e-06       8.99946e-07       8.07085e-15       8.67095e-09       4.89422e-01       2.75635e-01       4.89422e-01      
 7.92000e-01       5.69802e-06       9.50465e-07       8.08706e-15       8.99317e-09       4.89422e-01       2.82829e-01       4.89422e-01      
 8.01000e-01       5.86748e-06       1.00251e-06       8.10248e-15       9.32018e-09       4.89422e-01       2.90056e-01       4.89422e-01      
 8.10000e-01       6.03644e-06       1.05608e-06       8.11716e-15       9.65195e-09       4.89422e-01       2.97314e-01       4.89422e-01      
 8.19000e-01       6.20486e-06       1.11117e-06       8.13116e-15       9.98847e-09       4.89422e-01       3.04602e-01       4.89422e-01      
 8.28000e-01       6.37270e-06       1.16777e-06       8.14453e-15       1.03297e-08       4.89422e-01       3.11917e-01       4.89422e-01      
 8.37000e-01       6.53992e-06       1.22587e-06       8.15731e-15       1.06758e-08       4.89422e-01       3.19259e-01       4.89422e-01      
 8.46000e-01       6.70650e-06       1.28548e-06       8.16955e-15       1.10265e-08       4.89422e-01       3.26627e-01       4.89422e-01      
 8.55000e-01       6.87239e-06       1.34659e-06       8.18128e-15       1.13820e-08       4.89422e-01       3.34020e-01       4.89422e-01      
 8.64000e-01       7.03758e-06       1.40918e-06       8.19253e-15       1.17423e-08       4.89422e-01       3.41436e-01       4.89422e-01      
 8.73000e-01       7.20203e-06       1.47326e-06       8.20335e-15       1.21074e-08       4.89422e-01       3.48874e-01       4.89422e-01      
 8.82000e-01       7.36572e-06       1.53881e-06       8.21375e-15       1.24772e-08       4.89422e-01       3.56335e-01       4.89422e-01      
 8.91000e-01       7.52864e-06       1.60584e-06       8.22377e-15       1.28519e-08       4.89422e-01       3.63817e-01       4.89422e-01      
 9.00000e-01       7.69075e-06       1.67433e-06       8.23342e-15       1.32315e-08       4.89422e-01       3.71320e-01       4.89422e-01      
 9.09000e-01       7.85204e-06       1.74427e-06       8.24274e-15       1.36160e-08       4.89422e-01       3.78843e-01       4.89422e-01      
 9.18000e-01       8.01249e-06       1.81566e-06       8.25174e-15       1.40054e-08       4.89422e-01       3.86385e-01       4.89422e-01      
 9.27000e-01       8.17207e-06       1.88849e-06       8.26045e-15       1.43997e-08       4.89422e-01       3.93947e-01       4.89422e-01      
 9.36000e-01       8.33078e-06       1.96275e-06       8.26887e-15       1.47991e-08       4.89422e-01       4.01528e-01       4.89422e-01      
 9.45000e-01       8.48858e-06       2.03843e-06       8.27704e-15       1.52035e-08       4.89422e-01       4.09127e-01       4.89422e-01      
 9.54000e-01       8.64547e-06       2.11554e-06       8.28495e-15       1.56131e-08       4.89422e-01       4.16745e-01       4.89422e-01      
 9.63000e-01       8.80143e-06       2.19405e-06       8.29263e-15       1.60279e-08       4.89422e-01       4.24380e-01       4.89422e-01      
 9.72000e-01       8.95643e-06       2.27395e-06       8.30009e-15       1.64479e-08       4.89422e-01       4.32033e-01       4.89422e-01      
 9.81000e-01       9.11046e-06       2.35525e-06       8.30734e-15       1.68731e-08       4.89422e-01       4.39704e-01       4.89422e-01      
 9.90000e-01       9.26350e-06       2.43794e-06       8.31440e-15       1.73038e-08       4.89422e-01       4.47392e-01       4.89422e-01      
 9.99000e-01       9.41553e-06       2.52199e-06       8.32126e-15       1.77399e-08       4.89422e-01       4.55097e-01       4.89422e-01      
 1.00800e+00       9.56654e-06       2.60741e-06       8.32795e-15       1.81815e-08       4.89422e-01       4.62819e-01       4.89422e-01      
 1.01700e+00       9.71650e-06       2.69418e-06       8.33447e-15       1.86287e-08       4.89422e-01       4.70558e-01       4.89422e-01      
 1.02600e+00       9.86541e-06       2.78230e-06       8.34083e-15       1.90815e-08       4.89422e-01       4.78314e-01       4.89422e-01      
 1.03500e+00       1.00132e-05       2.87175e-06       8.34703e-15       1.95402e-08       4.89422e-01       4.86087e-01       4.89422e-01      
 1.04400e+00       1.01600e-05       2.96253e-06       8.35309e-15       2.00046e-08       4.89422e-01       4.93877e-01       4.89422e-01      
 1.05300e+00       1.03056e-05       3.05462e-06       8.35901e-15       2.04750e-08       4.89422e-01       5.01684e-01       4.89422e-01      
 1.06200e+00       1.04501e-05       3.14802e-06       8.36479e-15       2.09515e-08       4.89422e-01       5.09507e-01       4.89422e-01      
 1.07100e+00       1.05934e-05       3.24271e-06       8.37045e-15       2.14341e-08       4.89422e-01       5.17347e-01       4.89422e-01      
 1.08000e+00       1.07356e-05       3.33869e-06       8.37598e-15       2.19229e-08       4.89422e-01       5.25204e-01       4.89422e-01      
 1.08900e+00       1.08766e-05       3.43595e-06       8.38140e-15       2.24180e-08       4.89422e-01       5.33077e-01       4.89422e-01      
 1.09800e+00       1.10164e-05       3.53446e-06       8.38671e-15       2.29197e-08       4.89422e-01       5.40968e-01       4.89422e-01      
 1.10700e+00       1.11550e-05       3.63423e-06       8.39190e-15       2.34279e-08       4.89422e-01       5.48875e-01       4.89422e-01      
 1.11600e+00       1.12924e-05       3.73525e-06       8.39700e-15       2.39428e-08       4.89422e-01       5.56799e-01       4.89422e-01      
 1.12500e+00       1.14285e-05       3.83749e-06       8.40199e-15       2.44646e-08       4.89422e-01       5.64739e-01       4.89422e-01      
 1.13400e+00       1.15633e-05       3.94095e-06       8.40689e-15       2.49933e-08       4.89422e-01       5.72697e-01       4.89422e-01      
 1.14300e+00       1.16969e-05       4.04562e-06       8.41170e-15       2.55291e-08       4.89422e-01       5.80672e-01       4.89422e-01      
 1.15200e+00       1.18292e-05       4.15149e-06       8.41642e-15       2.60722e-08       4.89422e-01       5.88663e-01       4.89422e-01      
 1.16100e+00       1.19602e-05       4.25854e-06       8.42105e-15       2.66227e-08       4.89422e-01       5.96672e-01       4.89422e-01      
 1.17000e+00       1.20899e-05       4.36676e-06       8.42560e-15       2.71807e-08       4.89422e-01       6.04698e-01       4.89422e-01      
 1.17900e+00       1.22182e-05       4.47615e-06       8.43007e-15       2.77465e-08       4.89422e-01       6.12741e-01       4.89422e-01      
 1.18800e+00       1.23452e-05       4.58668e-06       8.43446e-15       2.83201e-08       4.89422e-01       6.20801e-01       4.89422e-01      
 1.19700e+00       1.24708e-05       4.69835e-06       8.43878e-15       2.89018e-08       4.89422e-01       6.28879e-01       4.89422e-01      
 1.20600e+00       1.25951e-05       4.81115e-06       8.44303e-15       2.94918e-08       4.89422e-01       6.36974e-01       4.89422e-01      
 1.21500e+00       1.27180e-05       4.92506e-06       8.44721e-15       3.00902e-08       4.89422e-01       6.45087e-01       4.89422e-01      
