
dc (V)            getData("M0:gm    getData("M0:id    getData("M0:cg    getData("M0:gd    getData("M0:vt    getData("M0:vd    getData("M0:vt

 0.00000e+00       9.94688e-13       5.19232e-14       1.66570e-14       6.91311e-16       5.15643e-01       4.00302e-02       5.15643e-01      
 9.00000e-03       1.33411e-12       6.23282e-14       1.65803e-14       9.27294e-16       5.15643e-01       4.00302e-02       5.15643e-01      
 1.80000e-02       1.78927e-12       7.62834e-14       1.65062e-14       1.24379e-15       5.15643e-01       4.00303e-02       5.15643e-01      
 2.70000e-02       2.39960e-12       9.49993e-14       1.64347e-14       1.66826e-15       5.15643e-01       4.00303e-02       5.15643e-01      
 3.60000e-02       3.21793e-12       1.20098e-13       1.63659e-14       2.23750e-15       5.15643e-01       4.00303e-02       5.15643e-01      
 4.50000e-02       4.31503e-12       1.53756e-13       1.62999e-14       3.00084e-15       5.15643e-01       4.00304e-02       5.15643e-01      
 5.40000e-02       5.78570e-12       1.98886e-13       1.62370e-14       4.02438e-15       5.15643e-01       4.00305e-02       5.15643e-01      
 6.30000e-02       7.75688e-12       2.59396e-13       1.61772e-14       5.39671e-15       5.15643e-01       4.00306e-02       5.15643e-01      
 7.20000e-02       1.03985e-11       3.40516e-13       1.61210e-14       7.23647e-15       5.15643e-01       4.00307e-02       5.15643e-01      
 8.10000e-02       1.39379e-11       4.49254e-13       1.60685e-14       9.70258e-15       5.15643e-01       4.00309e-02       5.15643e-01      
 9.00000e-02       1.86792e-11       5.94993e-13       1.60202e-14       1.30078e-14       5.15643e-01       4.00311e-02       5.15643e-01      
 9.90000e-02       2.50288e-11       7.90291e-13       1.59766e-14       1.74370e-14       5.15643e-01       4.00315e-02       5.15643e-01      
 1.08000e-01       3.35299e-11       1.05195e-12       1.59384e-14       2.33710e-14       5.15643e-01       4.00319e-02       5.15643e-01      
 1.17000e-01       4.49071e-11       1.40243e-12       1.59063e-14       3.13194e-14       5.15643e-01       4.00325e-02       5.15643e-01      
 1.26000e-01       6.01274e-11       1.87177e-12       1.58812e-14       4.19631e-14       5.15643e-01       4.00333e-02       5.15643e-01      
 1.35000e-01       8.04786e-11       2.50008e-12       1.58645e-14       5.62113e-14       5.15643e-01       4.00343e-02       5.15643e-01      
 1.44000e-01       1.07674e-10       3.34087e-12       1.58573e-14       7.52773e-14       5.15643e-01       4.00357e-02       5.15643e-01      
 1.53000e-01       1.43992e-10       4.46551e-12       1.58614e-14       1.00779e-13       5.15643e-01       4.00376e-02       5.15643e-01      
 1.62000e-01       1.92437e-10       5.96900e-12       1.58779e-14       1.34868e-13       5.15643e-01       4.00401e-02       5.15643e-01      
 1.71000e-01       2.57008e-10       7.97763e-12       1.59100e-14       1.80407e-13       5.15643e-01       4.00435e-02       5.15643e-01      
 1.80000e-01       3.42974e-10       1.06592e-11       1.59605e-14       2.41195e-13       5.15643e-01       4.00480e-02       5.15643e-01      
 1.89000e-01       4.57269e-10       1.42359e-11       1.60326e-14       3.22263e-13       5.15643e-01       4.00539e-02       5.15643e-01      
 1.98000e-01       6.08992e-10       1.90020e-11       1.61298e-14       4.30263e-13       5.15643e-01       4.00619e-02       5.15643e-01      
 2.07000e-01       8.10031e-10       2.53454e-11       1.62564e-14       5.73965e-13       5.15643e-01       4.00725e-02       5.15643e-01      
 2.16000e-01       1.07585e-09       3.37764e-11       1.64168e-14       7.64887e-13       5.15643e-01       4.00865e-02       5.15643e-01      
 2.25000e-01       1.42644e-09       4.49644e-11       1.66161e-14       1.01811e-12       5.15643e-01       4.01052e-02       5.15643e-01      
 2.34000e-01       1.88752e-09       5.97831e-11       1.68596e-14       1.35329e-12       5.15643e-01       4.01298e-02       5.15643e-01      
 2.43000e-01       2.49189e-09       7.93687e-11       1.71528e-14       1.79589e-12       5.15643e-01       4.01624e-02       5.15643e-01      
 2.52000e-01       3.28110e-09       1.05191e-10       1.75016e-14       2.37875e-12       5.15643e-01       4.02052e-02       5.15643e-01      
 2.61000e-01       4.30718e-09       1.39138e-10       1.79116e-14       3.14386e-12       5.15643e-01       4.02614e-02       5.15643e-01      
 2.70000e-01       5.63469e-09       1.83623e-10       1.83881e-14       4.14447e-12       5.15643e-01       4.03348e-02       5.15643e-01      
 2.79000e-01       7.34268e-09       2.41702e-10       1.89361e-14       5.44751e-12       5.15643e-01       4.04302e-02       5.15643e-01      
 2.88000e-01       9.52665e-09       3.17217e-10       1.95597e-14       7.13612e-12       5.15643e-01       4.05536e-02       5.15643e-01      
 2.97000e-01       1.23002e-08       4.14949e-10       2.02623e-14       9.31225e-12       5.15643e-01       4.07123e-02       5.15643e-01      
 3.06000e-01       1.57964e-08       5.40787e-10       2.10460e-14       1.20992e-11       5.15643e-01       4.09148e-02       5.15643e-01      
 3.15000e-01       2.01678e-08       7.01907e-10       2.19119e-14       1.56434e-11       5.15643e-01       4.11713e-02       5.15643e-01      
 3.24000e-01       2.55864e-08       9.06947e-10       2.28596e-14       2.01159e-11       5.15643e-01       4.14932e-02       5.15643e-01      
 3.33000e-01       3.22420e-08       1.16617e-09       2.38872e-14       2.57124e-11       5.15643e-01       4.18936e-02       5.15643e-01      
 3.42000e-01       4.03387e-08       1.49162e-09       2.49917e-14       3.26515e-11       5.15643e-01       4.23861e-02       5.15643e-01      
 3.51000e-01       5.00917e-08       1.89724e-09       2.61684e-14       4.11721e-11       5.15643e-01       4.29853e-02       5.15643e-01      
 3.60000e-01       6.17213e-08       2.39891e-09       2.74115e-14       5.15283e-11       5.15643e-01       4.37055e-02       5.15643e-01      
 3.69000e-01       7.54481e-08       3.01451e-09       2.87140e-14       6.39840e-11       5.15643e-01       4.45606e-02       5.15643e-01      
 3.78000e-01       9.14876e-08       3.76391e-09       3.00677e-14       7.88058e-11       5.15643e-01       4.55631e-02       5.15643e-01      
 3.87000e-01       1.10047e-07       4.66885e-09       3.14639e-14       9.62569e-11       5.15643e-01       4.67239e-02       5.15643e-01      
 3.96000e-01       1.31323e-07       5.75290e-09       3.28931e-14       1.16592e-10       5.15643e-01       4.80514e-02       5.15643e-01      
 4.05000e-01       1.55506e-07       7.04138e-09       3.43455e-14       1.40053e-10       5.15643e-01       4.95522e-02       5.15643e-01      
 4.14000e-01       1.82788e-07       8.56131e-09       3.58113e-14       1.66869e-10       5.15643e-01       5.12302e-02       5.15643e-01      
 4.23000e-01       2.13366e-07       1.03415e-08       3.72807e-14       1.97258e-10       5.15643e-01       5.30877e-02       5.15643e-01      
 4.32000e-01       2.47455e-07       1.24124e-08       3.87442e-14       2.31428e-10       5.15643e-01       5.51256e-02       5.15643e-01      
 4.41000e-01       2.85295e-07       1.48069e-08       4.01929e-14       2.69583e-10       5.15643e-01       5.73437e-02       5.15643e-01      
 4.50000e-01       3.27156e-07       1.75598e-08       4.16187e-14       3.11928e-10       5.15643e-01       5.97413e-02       5.15643e-01      
 4.59000e-01       3.73334e-07       2.07087e-08       4.30143e-14       3.58674e-10       5.15643e-01       6.23177e-02       5.15643e-01      
 4.68000e-01       4.24153e-07       2.42937e-08       4.43732e-14       4.10038e-10       5.15643e-01       6.50723e-02       5.15643e-01      
 4.77000e-01       4.79948e-07       2.83583e-08       4.56899e-14       4.66248e-10       5.15643e-01       6.80045e-02       5.15643e-01      
 4.86000e-01       5.41061e-07       3.29488e-08       4.69599e-14       5.27543e-10       5.15643e-01       7.11142e-02       5.15643e-01      
 4.95000e-01       6.07823e-07       3.81144e-08       4.81798e-14       5.94168e-10       5.15643e-01       7.44013e-02       5.15643e-01      
 5.04000e-01       6.80542e-07       4.39075e-08       4.93470e-14       6.66378e-10       5.15643e-01       7.78659e-02       5.15643e-01      
 5.13000e-01       7.59490e-07       5.03828e-08       5.04598e-14       7.44429e-10       5.15643e-01       8.15078e-02       5.15643e-01      
 5.22000e-01       8.44892e-07       5.75976e-08       5.15172e-14       8.28579e-10       5.15643e-01       8.53267e-02       5.15643e-01      
 5.31000e-01       9.36918e-07       6.56108e-08       5.25191e-14       9.19081e-10       5.15643e-01       8.93217e-02       5.15643e-01      
 5.40000e-01       1.03567e-06       7.44824e-08       5.34658e-14       1.01618e-09       5.15643e-01       9.34916e-02       5.15643e-01      
 5.49000e-01       1.14120e-06       8.42732e-08       5.43584e-14       1.12012e-09       5.15643e-01       9.78344e-02       5.15643e-01      
 5.58000e-01       1.25348e-06       9.50443e-08       5.51981e-14       1.23112e-09       5.15643e-01       1.02348e-01       5.15643e-01      
 5.67000e-01       1.37240e-06       1.06856e-07       5.59866e-14       1.34940e-09       5.15643e-01       1.07028e-01       5.15643e-01      
 5.76000e-01       1.49782e-06       1.19767e-07       5.67259e-14       1.47515e-09       5.15643e-01       1.11871e-01       5.15643e-01      
 5.85000e-01       1.62953e-06       1.33835e-07       5.74182e-14       1.60855e-09       5.15643e-01       1.16874e-01       5.15643e-01      
 5.94000e-01       1.76725e-06       1.49117e-07       5.80657e-14       1.74979e-09       5.15643e-01       1.22029e-01       5.15643e-01      
 6.03000e-01       1.91069e-06       1.65663e-07       5.86708e-14       1.89901e-09       5.15643e-01       1.27334e-01       5.15643e-01      
 6.12000e-01       2.05950e-06       1.83525e-07       5.92360e-14       2.05636e-09       5.15643e-01       1.32780e-01       5.15643e-01      
 6.21000e-01       2.21333e-06       2.02749e-07       5.97635e-14       2.22198e-09       5.15643e-01       1.38363e-01       5.15643e-01      
 6.30000e-01       2.37178e-06       2.23379e-07       6.02558e-14       2.39600e-09       5.15643e-01       1.44075e-01       5.15643e-01      
 6.39000e-01       2.53447e-06       2.45454e-07       6.07151e-14       2.57854e-09       5.15643e-01       1.49911e-01       5.15643e-01      
 6.48000e-01       2.70101e-06       2.69011e-07       6.11438e-14       2.76973e-09       5.15643e-01       1.55863e-01       5.15643e-01      
 6.57000e-01       2.87102e-06       2.94083e-07       6.15439e-14       2.96969e-09       5.15643e-01       1.61926e-01       5.15643e-01      
 6.66000e-01       3.04411e-06       3.20699e-07       6.19174e-14       3.17855e-09       5.15643e-01       1.68093e-01       5.15643e-01      
 6.75000e-01       3.21993e-06       3.48885e-07       6.22663e-14       3.39644e-09       5.15643e-01       1.74358e-01       5.15643e-01      
 6.84000e-01       3.39813e-06       3.78664e-07       6.25924e-14       3.62349e-09       5.15643e-01       1.80714e-01       5.15643e-01      
 6.93000e-01       3.57840e-06       4.10057e-07       6.28974e-14       3.85987e-09       5.15643e-01       1.87156e-01       5.15643e-01      
 7.02000e-01       3.76043e-06       4.43081e-07       6.31829e-14       4.10573e-09       5.15643e-01       1.93679e-01       5.15643e-01      
 7.11000e-01       3.94394e-06       4.77749e-07       6.34504e-14       4.36125e-09       5.15643e-01       2.00277e-01       5.15643e-01      
 7.20000e-01       4.12869e-06       5.14075e-07       6.37013e-14       4.62663e-09       5.15643e-01       2.06945e-01       5.15643e-01      
 7.29000e-01       4.31444e-06       5.52069e-07       6.39369e-14       4.90208e-09       5.15643e-01       2.13679e-01       5.15643e-01      
 7.38000e-01       4.50099e-06       5.91738e-07       6.41583e-14       5.18783e-09       5.15643e-01       2.20474e-01       5.15643e-01      
 7.47000e-01       4.68813e-06       6.33088e-07       6.43666e-14       5.48414e-09       5.15643e-01       2.27326e-01       5.15643e-01      
 7.56000e-01       4.87571e-06       6.76125e-07       6.45629e-14       5.79129e-09       5.15643e-01       2.34231e-01       5.15643e-01      
 7.65000e-01       5.06357e-06       7.20852e-07       6.47481e-14       6.10959e-09       5.15643e-01       2.41186e-01       5.15643e-01      
 7.74000e-01       5.25158e-06       7.67270e-07       6.49231e-14       6.43938e-09       5.15643e-01       2.48188e-01       5.15643e-01      
 7.83000e-01       5.43961e-06       8.15380e-07       6.50886e-14       6.78102e-09       5.15643e-01       2.55233e-01       5.15643e-01      
 7.92000e-01       5.62756e-06       8.65183e-07       6.52455e-14       7.13490e-09       5.15643e-01       2.62319e-01       5.15643e-01      
 8.01000e-01       5.81534e-06       9.16676e-07       6.53942e-14       7.50147e-09       5.15643e-01       2.69444e-01       5.15643e-01      
 8.10000e-01       6.00285e-06       9.69858e-07       6.55356e-14       7.88118e-09       5.15643e-01       2.76605e-01       5.15643e-01      
 8.19000e-01       6.19004e-06       1.02473e-06       6.56701e-14       8.27456e-09       5.15643e-01       2.83799e-01       5.15643e-01      
 8.28000e-01       6.37682e-06       1.08128e-06       6.57982e-14       8.68216e-09       5.15643e-01       2.91026e-01       5.15643e-01      
 8.37000e-01       6.56314e-06       1.13951e-06       6.59205e-14       9.10457e-09       5.15643e-01       2.98283e-01       5.15643e-01      
 8.46000e-01       6.74895e-06       1.19941e-06       6.60373e-14       9.54244e-09       5.15643e-01       3.05568e-01       5.15643e-01      
 8.55000e-01       6.93419e-06       1.26099e-06       6.61492e-14       9.99647e-09       5.15643e-01       3.12881e-01       5.15643e-01      
 8.64000e-01       7.11883e-06       1.32423e-06       6.62563e-14       1.04674e-08       5.15643e-01       3.20220e-01       5.15643e-01      
 8.73000e-01       7.30283e-06       1.38912e-06       6.63591e-14       1.09561e-08       5.15643e-01       3.27584e-01       5.15643e-01      
 8.82000e-01       7.48614e-06       1.45568e-06       6.64579e-14       1.14634e-08       5.15643e-01       3.34971e-01       5.15643e-01      
 8.91000e-01       7.66873e-06       1.52387e-06       6.65530e-14       1.19903e-08       5.15643e-01       3.42381e-01       5.15643e-01      
 9.00000e-01       7.85058e-06       1.59371e-06       6.66447e-14       1.25378e-08       5.15643e-01       3.49813e-01       5.15643e-01      
 9.09000e-01       8.03164e-06       1.66518e-06       6.67331e-14       1.31071e-08       5.15643e-01       3.57266e-01       5.15643e-01      
 9.18000e-01       8.21189e-06       1.73828e-06       6.68185e-14       1.36993e-08       5.15643e-01       3.64739e-01       5.15643e-01      
 9.27000e-01       8.39131e-06       1.81299e-06       6.69011e-14       1.43157e-08       5.15643e-01       3.72232e-01       5.15643e-01      
 9.36000e-01       8.56985e-06       1.88932e-06       6.69811e-14       1.49579e-08       5.15643e-01       3.79744e-01       5.15643e-01      
 9.45000e-01       8.74751e-06       1.96725e-06       6.70587e-14       1.56272e-08       5.15643e-01       3.87275e-01       5.15643e-01      
 9.54000e-01       8.92424e-06       2.04677e-06       6.71340e-14       1.63255e-08       5.15643e-01       3.94824e-01       5.15643e-01      
 9.63000e-01       9.10002e-06       2.12788e-06       6.72073e-14       1.70545e-08       5.15643e-01       4.02391e-01       5.15643e-01      
 9.72000e-01       9.27483e-06       2.21057e-06       6.72786e-14       1.78162e-08       5.15643e-01       4.09975e-01       5.15643e-01      
 9.81000e-01       9.44864e-06       2.29482e-06       6.73480e-14       1.86127e-08       5.15643e-01       4.17577e-01       5.15643e-01      
 9.90000e-01       9.62142e-06       2.38064e-06       6.74158e-14       1.94464e-08       5.15643e-01       4.25195e-01       5.15643e-01      
 9.99000e-01       9.79315e-06       2.46801e-06       6.74820e-14       2.03199e-08       5.15643e-01       4.32830e-01       5.15643e-01      
 1.00800e+00       9.96380e-06       2.55691e-06       6.75467e-14       2.12359e-08       5.15643e-01       4.40481e-01       5.15643e-01      
 1.01700e+00       1.01333e-05       2.64735e-06       6.76101e-14       2.21974e-08       5.15643e-01       4.48148e-01       5.15643e-01      
 1.02600e+00       1.03017e-05       2.73931e-06       6.76722e-14       2.32078e-08       5.15643e-01       4.55831e-01       5.15643e-01      
 1.03500e+00       1.04690e-05       2.83278e-06       6.77331e-14       2.42707e-08       5.15643e-01       4.63530e-01       5.15643e-01      
 1.04400e+00       1.06350e-05       2.92775e-06       6.77929e-14       2.53902e-08       5.15643e-01       4.71245e-01       5.15643e-01      
 1.05300e+00       1.07998e-05       3.02421e-06       6.78517e-14       2.65705e-08       5.15643e-01       4.78975e-01       5.15643e-01      
 1.06200e+00       1.09634e-05       3.12214e-06       6.79096e-14       2.78165e-08       5.15643e-01       4.86721e-01       5.15643e-01      
 1.07100e+00       1.11257e-05       3.22154e-06       6.79667e-14       2.91335e-08       5.15643e-01       4.94482e-01       5.15643e-01      
 1.08000e+00       1.12867e-05       3.32240e-06       6.80230e-14       3.05273e-08       5.15643e-01       5.02259e-01       5.15643e-01      
 1.08900e+00       1.14463e-05       3.42470e-06       6.80786e-14       3.20044e-08       5.15643e-01       5.10050e-01       5.15643e-01      
 1.09800e+00       1.16045e-05       3.52843e-06       6.81336e-14       3.35717e-08       5.15643e-01       5.17857e-01       5.15643e-01      
 1.10700e+00       1.17614e-05       3.63358e-06       6.81880e-14       3.52373e-08       5.15643e-01       5.25679e-01       5.15643e-01      
 1.11600e+00       1.19168e-05       3.74013e-06       6.82420e-14       3.70096e-08       5.15643e-01       5.33517e-01       5.15643e-01      
 1.12500e+00       1.20708e-05       3.84807e-06       6.82955e-14       3.88985e-08       5.15643e-01       5.41369e-01       5.15643e-01      
 1.13400e+00       1.22232e-05       3.95740e-06       6.83487e-14       4.09145e-08       5.15643e-01       5.49237e-01       5.15643e-01      
 1.14300e+00       1.23741e-05       4.06809e-06       6.84017e-14       4.30696e-08       5.15643e-01       5.57120e-01       5.15643e-01      
 1.15200e+00       1.25234e-05       4.18013e-06       6.84544e-14       4.53769e-08       5.15643e-01       5.65018e-01       5.15643e-01      
 1.16100e+00       1.26712e-05       4.29351e-06       6.85070e-14       4.78511e-08       5.15643e-01       5.72931e-01       5.15643e-01      
 1.17000e+00       1.28172e-05       4.40820e-06       6.85595e-14       5.05088e-08       5.15643e-01       5.80859e-01       5.15643e-01      
 1.17900e+00       1.29616e-05       4.52421e-06       6.86120e-14       5.33682e-08       5.15643e-01       5.88803e-01       5.15643e-01      
 1.18800e+00       1.31043e-05       4.64151e-06       6.86645e-14       5.64500e-08       5.15643e-01       5.96762e-01       5.15643e-01      
 1.19700e+00       1.32451e-05       4.76008e-06       6.87173e-14       5.97770e-08       5.15643e-01       6.04736e-01       5.15643e-01      
 1.20600e+00       1.33842e-05       4.87991e-06       6.87702e-14       6.33750e-08       5.15643e-01       6.12725e-01       5.15643e-01      
 1.21500e+00       1.35213e-05       5.00099e-06       6.88234e-14       6.72730e-08       5.15643e-01       6.20730e-01       5.15643e-01      
