
dc (V)            getData("M0:gm    getData("M0:id    getData("M0:cg    getData("M0:gd    getData("M0:vt    getData("M0:vd    getData("M0:vt

 0.00000e+00       1.16085e-12       5.70148e-14       1.40448e-14       8.68268e-16       5.16276e-01       4.00535e-02       5.16276e-01      
 9.00000e-03       1.55697e-12       6.91579e-14       1.39804e-14       1.16466e-15       5.16276e-01       4.00535e-02       5.16276e-01      
 1.80000e-02       2.08817e-12       8.54444e-14       1.39182e-14       1.56218e-15       5.16276e-01       4.00535e-02       5.16276e-01      
 2.70000e-02       2.80047e-12       1.07287e-13       1.38582e-14       2.09531e-15       5.16276e-01       4.00536e-02       5.16276e-01      
 3.60000e-02       3.75553e-12       1.36579e-13       1.38005e-14       2.81027e-15       5.16276e-01       4.00536e-02       5.16276e-01      
 4.50000e-02       5.03594e-12       1.75860e-13       1.37452e-14       3.76903e-15       5.16276e-01       4.00536e-02       5.16276e-01      
 5.40000e-02       6.75237e-12       2.28530e-13       1.36923e-14       5.05461e-15       5.16276e-01       4.00537e-02       5.16276e-01      
 6.30000e-02       9.05296e-12       2.99150e-13       1.36422e-14       6.77827e-15       5.16276e-01       4.00538e-02       5.16276e-01      
 7.20000e-02       1.21361e-11       3.93825e-13       1.35949e-14       9.08907e-15       5.16276e-01       4.00540e-02       5.16276e-01      
 8.10000e-02       1.62671e-11       5.20734e-13       1.35507e-14       1.21866e-14       5.16276e-01       4.00541e-02       5.16276e-01      
 9.00000e-02       2.18010e-11       6.90829e-13       1.35101e-14       1.63382e-14       5.16276e-01       4.00544e-02       5.16276e-01      
 9.90000e-02       2.92122e-11       9.18768e-13       1.34734e-14       2.19016e-14       5.16276e-01       4.00547e-02       5.16276e-01      
 1.08000e-01       3.91349e-11       1.22416e-12       1.34411e-14       2.93553e-14       5.16276e-01       4.00551e-02       5.16276e-01      
 1.17000e-01       5.24151e-11       1.63324e-12       1.34139e-14       3.93395e-14       5.16276e-01       4.00557e-02       5.16276e-01      
 1.26000e-01       7.01818e-11       2.18106e-12       1.33926e-14       5.27096e-14       5.16276e-01       4.00565e-02       5.16276e-01      
 1.35000e-01       9.39388e-11       2.91443e-12       1.33781e-14       7.06080e-14       5.16276e-01       4.00575e-02       5.16276e-01      
 1.44000e-01       1.25688e-10       3.89587e-12       1.33716e-14       9.45594e-14       5.16276e-01       4.00589e-02       5.16276e-01      
 1.53000e-01       1.68087e-10       5.20868e-12       1.33744e-14       1.26596e-13       5.16276e-01       4.00607e-02       5.16276e-01      
 1.62000e-01       2.24650e-10       6.96380e-12       1.33876e-14       1.69425e-13       5.16276e-01       4.00632e-02       5.16276e-01      
 1.71000e-01       3.00047e-10       9.30874e-12       1.34137e-14       2.26640e-13       5.16276e-01       4.00664e-02       5.16276e-01      
 1.80000e-01       4.00435e-10       1.24394e-11       1.34550e-14       3.03019e-13       5.16276e-01       4.00708e-02       5.16276e-01      
 1.89000e-01       5.33920e-10       1.66156e-11       1.35142e-14       4.04889e-13       5.16276e-01       4.00767e-02       5.16276e-01      
 1.98000e-01       7.11141e-10       2.21809e-11       1.35944e-14       5.40616e-13       5.16276e-01       4.00845e-02       5.16276e-01      
 2.07000e-01       9.46001e-10       2.95886e-11       1.36988e-14       7.21228e-13       5.16276e-01       4.00948e-02       5.16276e-01      
 2.16000e-01       1.25659e-09       3.94356e-11       1.38315e-14       9.61223e-13       5.16276e-01       4.01086e-02       5.16276e-01      
 2.25000e-01       1.66633e-09       5.25041e-11       1.39964e-14       1.27958e-12       5.16276e-01       4.01268e-02       5.16276e-01      
 2.34000e-01       2.20532e-09       6.98164e-11       1.41981e-14       1.70106e-12       5.16276e-01       4.01510e-02       5.16276e-01      
 2.43000e-01       2.91202e-09       9.27019e-11       1.44412e-14       2.25775e-12       5.16276e-01       4.01829e-02       5.16276e-01      
 2.52000e-01       3.83514e-09       1.22881e-10       1.47307e-14       2.99103e-12       5.16276e-01       4.02248e-02       5.16276e-01      
 2.61000e-01       5.03578e-09       1.62566e-10       1.50711e-14       3.95390e-12       5.16276e-01       4.02799e-02       5.16276e-01      
 2.70000e-01       6.58976e-09       2.14583e-10       1.54671e-14       5.21361e-12       5.16276e-01       4.03518e-02       5.16276e-01      
 2.79000e-01       8.59007e-09       2.82518e-10       1.59227e-14       6.85478e-12       5.16276e-01       4.04454e-02       5.16276e-01      
 2.88000e-01       1.11492e-08       3.70879e-10       1.64417e-14       8.98262e-12       5.16276e-01       4.05665e-02       5.16276e-01      
 2.97000e-01       1.44010e-08       4.85279e-10       1.70267e-14       1.17264e-11       5.16276e-01       4.07222e-02       5.16276e-01      
 3.06000e-01       1.85025e-08       6.32643e-10       1.76798e-14       1.52426e-11       5.16276e-01       4.09211e-02       5.16276e-01      
 3.15000e-01       2.36343e-08       8.21413e-10       1.84018e-14       1.97178e-11       5.16276e-01       4.11732e-02       5.16276e-01      
 3.24000e-01       3.00001e-08       1.06176e-09       1.91925e-14       2.53701e-11       5.16276e-01       4.14899e-02       5.16276e-01      
 3.33000e-01       3.78249e-08       1.36579e-09       2.00505e-14       3.24496e-11       5.16276e-01       4.18839e-02       5.16276e-01      
 3.42000e-01       4.73515e-08       1.74771e-09       2.09732e-14       4.12370e-11       5.16276e-01       4.23692e-02       5.16276e-01      
 3.51000e-01       5.88360e-08       2.22399e-09       2.19568e-14       5.20399e-11       5.16276e-01       4.29600e-02       5.16276e-01      
 3.60000e-01       7.25414e-08       2.81342e-09       2.29965e-14       6.51869e-11       5.16276e-01       4.36710e-02       5.16276e-01      
 3.69000e-01       8.87314e-08       3.53719e-09       2.40865e-14       8.10204e-11       5.16276e-01       4.45158e-02       5.16276e-01      
 3.78000e-01       1.07664e-07       4.41882e-09       2.52200e-14       9.98883e-11       5.16276e-01       4.55074e-02       5.16276e-01      
 3.87000e-01       1.29586e-07       5.48411e-09       2.63897e-14       1.22135e-10       5.16276e-01       4.66566e-02       5.16276e-01      
 3.96000e-01       1.54736e-07       6.76105e-09       2.75876e-14       1.48096e-10       5.16276e-01       4.79721e-02       5.16276e-01      
 4.05000e-01       1.83340e-07       8.27972e-09       2.88057e-14       1.78091e-10       5.16276e-01       4.94606e-02       5.16276e-01      
 4.14000e-01       2.15624e-07       1.00722e-08       3.00355e-14       2.12423e-10       5.16276e-01       5.11263e-02       5.16276e-01      
 4.23000e-01       2.51823e-07       1.21727e-08       3.12689e-14       2.51380e-10       5.16276e-01       5.29716e-02       5.16276e-01      
 4.32000e-01       2.92192e-07       1.46175e-08       3.24980e-14       2.95238e-10       5.16276e-01       5.49973e-02       5.16276e-01      
 4.41000e-01       3.37012e-07       1.74455e-08       3.37151e-14       3.44266e-10       5.16276e-01       5.72034e-02       5.16276e-01      
 4.50000e-01       3.86600e-07       2.06980e-08       3.49135e-14       3.98734e-10       5.16276e-01       5.95892e-02       5.16276e-01      
 4.59000e-01       4.41310e-07       2.44197e-08       3.60869e-14       4.58918e-10       5.16276e-01       6.21540e-02       5.16276e-01      
 4.68000e-01       5.01520e-07       2.86581e-08       3.72299e-14       5.25101e-10       5.16276e-01       6.48970e-02       5.16276e-01      
 4.77000e-01       5.67631e-07       3.34647e-08       3.83377e-14       5.97580e-10       5.16276e-01       6.78177e-02       5.16276e-01      
 4.86000e-01       6.40047e-07       3.88944e-08       3.94067e-14       6.76665e-10       5.16276e-01       7.09158e-02       5.16276e-01      
 4.95000e-01       7.19165e-07       4.50057e-08       4.04337e-14       7.62677e-10       5.16276e-01       7.41915e-02       5.16276e-01      
 5.04000e-01       8.05351e-07       5.18606e-08       4.14166e-14       8.55944e-10       5.16276e-01       7.76445e-02       5.16276e-01      
 5.13000e-01       8.98932e-07       5.95242e-08       4.23539e-14       9.56799e-10       5.16276e-01       8.12748e-02       5.16276e-01      
 5.22000e-01       1.00018e-06       6.80643e-08       4.32448e-14       1.06558e-09       5.16276e-01       8.50820e-02       5.16276e-01      
 5.31000e-01       1.10930e-06       7.75510e-08       4.40891e-14       1.18261e-09       5.16276e-01       8.90654e-02       5.16276e-01      
 5.40000e-01       1.22642e-06       8.80558e-08       4.48871e-14       1.30821e-09       5.16276e-01       9.32236e-02       5.16276e-01      
 5.49000e-01       1.35160e-06       9.96508e-08       4.56395e-14       1.44270e-09       5.16276e-01       9.75547e-02       5.16276e-01      
 5.58000e-01       1.48481e-06       1.12409e-07       4.63475e-14       1.58636e-09       5.16276e-01       1.02056e-01       5.16276e-01      
 5.67000e-01       1.62594e-06       1.26401e-07       4.70124e-14       1.73947e-09       5.16276e-01       1.06725e-01       5.16276e-01      
 5.76000e-01       1.77481e-06       1.41699e-07       4.76359e-14       1.90230e-09       5.16276e-01       1.11557e-01       5.16276e-01      
 5.85000e-01       1.93116e-06       1.58370e-07       4.82197e-14       2.07507e-09       5.16276e-01       1.16547e-01       5.16276e-01      
 5.94000e-01       2.09470e-06       1.76481e-07       4.87659e-14       2.25802e-09       5.16276e-01       1.21692e-01       5.16276e-01      
 6.03000e-01       2.26505e-06       1.96095e-07       4.92763e-14       2.45135e-09       5.16276e-01       1.26985e-01       5.16276e-01      
 6.12000e-01       2.44180e-06       2.17271e-07       4.97530e-14       2.65524e-09       5.16276e-01       1.32420e-01       5.16276e-01      
 6.21000e-01       2.62454e-06       2.40066e-07       5.01981e-14       2.86989e-09       5.16276e-01       1.37992e-01       5.16276e-01      
 6.30000e-01       2.81280e-06       2.64530e-07       5.06134e-14       3.09545e-09       5.16276e-01       1.43694e-01       5.16276e-01      
 6.39000e-01       3.00611e-06       2.90711e-07       5.10010e-14       3.33209e-09       5.16276e-01       1.49519e-01       5.16276e-01      
 6.48000e-01       3.20402e-06       3.18654e-07       5.13626e-14       3.57997e-09       5.16276e-01       1.55461e-01       5.16276e-01      
 6.57000e-01       3.40606e-06       3.48396e-07       5.17001e-14       3.83925e-09       5.16276e-01       1.61514e-01       5.16276e-01      
 6.66000e-01       3.61177e-06       3.79974e-07       5.20153e-14       4.11010e-09       5.16276e-01       1.67670e-01       5.16276e-01      
 6.75000e-01       3.82074e-06       4.13418e-07       5.23097e-14       4.39268e-09       5.16276e-01       1.73925e-01       5.16276e-01      
 6.84000e-01       4.03255e-06       4.48755e-07       5.25848e-14       4.68717e-09       5.16276e-01       1.80271e-01       5.16276e-01      
 6.93000e-01       4.24681e-06       4.86011e-07       5.28421e-14       4.99377e-09       5.16276e-01       1.86703e-01       5.16276e-01      
 7.02000e-01       4.46316e-06       5.25204e-07       5.30830e-14       5.31269e-09       5.16276e-01       1.93216e-01       5.16276e-01      
 7.11000e-01       4.68128e-06       5.66353e-07       5.33087e-14       5.64415e-09       5.16276e-01       1.99804e-01       5.16276e-01      
 7.20000e-01       4.90086e-06       6.09472e-07       5.35203e-14       5.98840e-09       5.16276e-01       2.06461e-01       5.16276e-01      
 7.29000e-01       5.12162e-06       6.54572e-07       5.37190e-14       6.34572e-09       5.16276e-01       2.13185e-01       5.16276e-01      
 7.38000e-01       5.34330e-06       7.01664e-07       5.39057e-14       6.71638e-09       5.16276e-01       2.19969e-01       5.16276e-01      
 7.47000e-01       5.56569e-06       7.50754e-07       5.40815e-14       7.10074e-09       5.16276e-01       2.26811e-01       5.16276e-01      
 7.56000e-01       5.78858e-06       8.01848e-07       5.42471e-14       7.49913e-09       5.16276e-01       2.33705e-01       5.16276e-01      
 7.65000e-01       6.01179e-06       8.54949e-07       5.44033e-14       7.91194e-09       5.16276e-01       2.40649e-01       5.16276e-01      
 7.74000e-01       6.23515e-06       9.10060e-07       5.45508e-14       8.33960e-09       5.16276e-01       2.47640e-01       5.16276e-01      
 7.83000e-01       6.45852e-06       9.67182e-07       5.46905e-14       8.78256e-09       5.16276e-01       2.54674e-01       5.16276e-01      
 7.92000e-01       6.68177e-06       1.02631e-06       5.48227e-14       9.24134e-09       5.16276e-01       2.61749e-01       5.16276e-01      
 8.01000e-01       6.90479e-06       1.08745e-06       5.49482e-14       9.71646e-09       5.16276e-01       2.68861e-01       5.16276e-01      
 8.10000e-01       7.12748e-06       1.15060e-06       5.50674e-14       1.02085e-08       5.16276e-01       2.76010e-01       5.16276e-01      
 8.19000e-01       7.34975e-06       1.21575e-06       5.51808e-14       1.07182e-08       5.16276e-01       2.83192e-01       5.16276e-01      
 8.28000e-01       7.57152e-06       1.28289e-06       5.52888e-14       1.12461e-08       5.16276e-01       2.90406e-01       5.16276e-01      
 8.37000e-01       7.79271e-06       1.35203e-06       5.53919e-14       1.17930e-08       5.16276e-01       2.97650e-01       5.16276e-01      
 8.46000e-01       8.01327e-06       1.42316e-06       5.54904e-14       1.23597e-08       5.16276e-01       3.04922e-01       5.16276e-01      
 8.55000e-01       8.23314e-06       1.49627e-06       5.55847e-14       1.29471e-08       5.16276e-01       3.12221e-01       5.16276e-01      
 8.64000e-01       8.45226e-06       1.57135e-06       5.56750e-14       1.35562e-08       5.16276e-01       3.19546e-01       5.16276e-01      
 8.73000e-01       8.67058e-06       1.64841e-06       5.57616e-14       1.41879e-08       5.16276e-01       3.26895e-01       5.16276e-01      
 8.82000e-01       8.88807e-06       1.72742e-06       5.58449e-14       1.48433e-08       5.16276e-01       3.34268e-01       5.16276e-01      
 8.91000e-01       9.10467e-06       1.80839e-06       5.59251e-14       1.55237e-08       5.16276e-01       3.41662e-01       5.16276e-01      
 9.00000e-01       9.32036e-06       1.89130e-06       5.60023e-14       1.62303e-08       5.16276e-01       3.49079e-01       5.16276e-01      
 9.09000e-01       9.53510e-06       1.97615e-06       5.60768e-14       1.69644e-08       5.16276e-01       3.56516e-01       5.16276e-01      
 9.18000e-01       9.74884e-06       2.06293e-06       5.61487e-14       1.77277e-08       5.16276e-01       3.63973e-01       5.16276e-01      
 9.27000e-01       9.96157e-06       2.15163e-06       5.62183e-14       1.85216e-08       5.16276e-01       3.71449e-01       5.16276e-01      
 9.36000e-01       1.01732e-05       2.24224e-06       5.62857e-14       1.93480e-08       5.16276e-01       3.78944e-01       5.16276e-01      
 9.45000e-01       1.03838e-05       2.33474e-06       5.63511e-14       2.02086e-08       5.16276e-01       3.86457e-01       5.16276e-01      
 9.54000e-01       1.05933e-05       2.42914e-06       5.64145e-14       2.11057e-08       5.16276e-01       3.93988e-01       5.16276e-01      
 9.63000e-01       1.08016e-05       2.52542e-06       5.64762e-14       2.20414e-08       5.16276e-01       4.01537e-01       5.16276e-01      
 9.72000e-01       1.10087e-05       2.62357e-06       5.65363e-14       2.30181e-08       5.16276e-01       4.09102e-01       5.16276e-01      
 9.81000e-01       1.12146e-05       2.72357e-06       5.65948e-14       2.40384e-08       5.16276e-01       4.16684e-01       5.16276e-01      
 9.90000e-01       1.14193e-05       2.82543e-06       5.66518e-14       2.51051e-08       5.16276e-01       4.24283e-01       5.16276e-01      
 9.99000e-01       1.16227e-05       2.92912e-06       5.67075e-14       2.62214e-08       5.16276e-01       4.31898e-01       5.16276e-01      
 1.00800e+00       1.18247e-05       3.03463e-06       5.67620e-14       2.73907e-08       5.16276e-01       4.39528e-01       5.16276e-01      
 1.01700e+00       1.20255e-05       3.14196e-06       5.68153e-14       2.86166e-08       5.16276e-01       4.47174e-01       5.16276e-01      
 1.02600e+00       1.22248e-05       3.25108e-06       5.68676e-14       2.99031e-08       5.16276e-01       4.54836e-01       5.16276e-01      
 1.03500e+00       1.24228e-05       3.36200e-06       5.69188e-14       3.12547e-08       5.16276e-01       4.62513e-01       5.16276e-01      
 1.04400e+00       1.26193e-05       3.47469e-06       5.69692e-14       3.26761e-08       5.16276e-01       4.70206e-01       5.16276e-01      
 1.05300e+00       1.28143e-05       3.58914e-06       5.70187e-14       3.41725e-08       5.16276e-01       4.77913e-01       5.16276e-01      
 1.06200e+00       1.30078e-05       3.70534e-06       5.70674e-14       3.57499e-08       5.16276e-01       4.85636e-01       5.16276e-01      
 1.07100e+00       1.31998e-05       3.82328e-06       5.71154e-14       3.74144e-08       5.16276e-01       4.93373e-01       5.16276e-01      
 1.08000e+00       1.33902e-05       3.94293e-06       5.71628e-14       3.91731e-08       5.16276e-01       5.01126e-01       5.16276e-01      
 1.08900e+00       1.35790e-05       4.06430e-06       5.72095e-14       4.10336e-08       5.16276e-01       5.08893e-01       5.16276e-01      
 1.09800e+00       1.37661e-05       4.18735e-06       5.72558e-14       4.30044e-08       5.16276e-01       5.16675e-01       5.16276e-01      
 1.10700e+00       1.39516e-05       4.31208e-06       5.73016e-14       4.50949e-08       5.16276e-01       5.24472e-01       5.16276e-01      
 1.11600e+00       1.41353e-05       4.43847e-06       5.73470e-14       4.73153e-08       5.16276e-01       5.32284e-01       5.16276e-01      
 1.12500e+00       1.43172e-05       4.56651e-06       5.73920e-14       4.96771e-08       5.16276e-01       5.40110e-01       5.16276e-01      
 1.13400e+00       1.44974e-05       4.69618e-06       5.74367e-14       5.21929e-08       5.16276e-01       5.47951e-01       5.16276e-01      
 1.14300e+00       1.46757e-05       4.82746e-06       5.74812e-14       5.48768e-08       5.16276e-01       5.55807e-01       5.16276e-01      
 1.15200e+00       1.48521e-05       4.96034e-06       5.75256e-14       5.77443e-08       5.16276e-01       5.63677e-01       5.16276e-01      
 1.16100e+00       1.50265e-05       5.09479e-06       5.75698e-14       6.08129e-08       5.16276e-01       5.71563e-01       5.16276e-01      
 1.17000e+00       1.51990e-05       5.23081e-06       5.76139e-14       6.41018e-08       5.16276e-01       5.79463e-01       5.16276e-01      
 1.17900e+00       1.53695e-05       5.36837e-06       5.76580e-14       6.76326e-08       5.16276e-01       5.87377e-01       5.16276e-01      
 1.18800e+00       1.55379e-05       5.50745e-06       5.77022e-14       7.14295e-08       5.16276e-01       5.95307e-01       5.16276e-01      
 1.19700e+00       1.57042e-05       5.64804e-06       5.77465e-14       7.55192e-08       5.16276e-01       6.03251e-01       5.16276e-01      
 1.20600e+00       1.58682e-05       5.79012e-06       5.77910e-14       7.99320e-08       5.16276e-01       6.11210e-01       5.16276e-01      
 1.21500e+00       1.60301e-05       5.93366e-06       5.78357e-14       8.47017e-08       5.16276e-01       6.19185e-01       5.16276e-01      
