
dc (V)            getData("M0:gm    getData("M0:id    getData("M0:cg    getData("M0:gd    getData("M0:vt    getData("M0:vd    getData("M0:vt

 0.00000e+00       1.98804e-12       8.25357e-14       8.05970e-15       2.28219e-15       5.19452e-01       4.04689e-02       5.19452e-01      
 9.00000e-03       2.66423e-12       1.03323e-13       8.02366e-15       3.05869e-15       5.19452e-01       4.04689e-02       5.19452e-01      
 1.80000e-02       3.57026e-12       1.31179e-13       7.98881e-15       4.09929e-15       5.19452e-01       4.04689e-02       5.19452e-01      
 2.70000e-02       4.78418e-12       1.68508e-13       7.95516e-15       5.49373e-15       5.19452e-01       4.04690e-02       5.19452e-01      
 3.60000e-02       6.41049e-12       2.18528e-13       7.92277e-15       7.36223e-15       5.19452e-01       4.04690e-02       5.19452e-01      
 4.50000e-02       8.58908e-12       2.85549e-13       7.89168e-15       9.86583e-15       5.19452e-01       4.04690e-02       5.19452e-01      
 5.40000e-02       1.15072e-11       3.75344e-13       7.86195e-15       1.32201e-14       5.19452e-01       4.04691e-02       5.19452e-01      
 6.30000e-02       1.54153e-11       4.95640e-13       7.83367e-15       1.77138e-14       5.19452e-01       4.04692e-02       5.19452e-01      
 7.20000e-02       2.06485e-11       6.56783e-13       7.80695e-15       2.37333e-14       5.19452e-01       4.04693e-02       5.19452e-01      
 8.10000e-02       2.76550e-11       8.72619e-13       7.78194e-15       3.17958e-14       5.19452e-01       4.04695e-02       5.19452e-01      
 9.00000e-02       3.70336e-11       1.16167e-12       7.75881e-15       4.25931e-14       5.19452e-01       4.04697e-02       5.19452e-01      
 9.90000e-02       4.95843e-11       1.54871e-12       7.73779e-15       5.70509e-14       5.19452e-01       4.04700e-02       5.19452e-01      
 1.08000e-01       6.63753e-11       2.06687e-12       7.71916e-15       7.64061e-14       5.19452e-01       4.04704e-02       5.19452e-01      
 1.17000e-01       8.88315e-11       2.76042e-12       7.70325e-15       1.02312e-13       5.19452e-01       4.04710e-02       5.19452e-01      
 1.26000e-01       1.18853e-10       3.68847e-12       7.69048e-15       1.36978e-13       5.19452e-01       4.04717e-02       5.19452e-01      
 1.35000e-01       1.58968e-10       4.92997e-12       7.68136e-15       1.83349e-13       5.19452e-01       4.04726e-02       5.19452e-01      
 1.44000e-01       2.12543e-10       6.59017e-12       7.67650e-15       2.45359e-13       5.19452e-01       4.04739e-02       5.19452e-01      
 1.53000e-01       2.84046e-10       8.80938e-12       7.67662e-15       3.28243e-13       5.19452e-01       4.04757e-02       5.19452e-01      
 1.62000e-01       3.79377e-10       1.17743e-11       7.68218e-15       4.38971e-13       5.19452e-01       4.04780e-02       5.19452e-01      
 1.71000e-01       5.06382e-10       1.57329e-11       7.69463e-15       5.86801e-13       5.19452e-01       4.04810e-02       5.19452e-01      
 1.80000e-01       6.75401e-10       2.10149e-11       7.71521e-15       7.84024e-13       5.19452e-01       4.04851e-02       5.19452e-01      
 1.89000e-01       9.00049e-10       2.80566e-11       7.74530e-15       1.04692e-12       5.19452e-01       4.04906e-02       5.19452e-01      
 1.98000e-01       1.19820e-09       3.74357e-11       7.78654e-15       1.39701e-12       5.19452e-01       4.04979e-02       5.19452e-01      
 2.07000e-01       1.59321e-09       4.99140e-11       7.84076e-15       1.86266e-12       5.19452e-01       4.05075e-02       5.19452e-01      
 2.16000e-01       2.11551e-09       6.64944e-11       7.91002e-15       2.48118e-12       5.19452e-01       4.05204e-02       5.19452e-01      
 2.25000e-01       2.80449e-09       8.84921e-11       7.99657e-15       3.30141e-12       5.19452e-01       4.05374e-02       5.19452e-01      
 2.34000e-01       3.71091e-09       1.17626e-10       8.10284e-15       4.38709e-12       5.19452e-01       4.05599e-02       5.19452e-01      
 2.43000e-01       4.89966e-09       1.56134e-10       8.23142e-15       5.82094e-12       5.19452e-01       4.05897e-02       5.19452e-01      
 2.52000e-01       6.45306e-09       2.06912e-10       8.38496e-15       7.70971e-12       5.19452e-01       4.06288e-02       5.19452e-01      
 2.61000e-01       8.47468e-09       2.73691e-10       8.56609e-15       1.01903e-11       5.19452e-01       4.06802e-02       5.19452e-01      
 2.70000e-01       1.10933e-08       3.61244e-10       8.77740e-15       1.34367e-11       5.19452e-01       4.07474e-02       5.19452e-01      
 2.79000e-01       1.44676e-08       4.75635e-10       9.02125e-15       1.76684e-11       5.19452e-01       4.08348e-02       5.19452e-01      
 2.88000e-01       1.87898e-08       6.24501e-10       9.29974e-15       2.31591e-11       5.19452e-01       4.09481e-02       5.19452e-01      
 2.97000e-01       2.42902e-08       8.17381e-10       9.61458e-15       3.02458e-11       5.19452e-01       4.10939e-02       5.19452e-01      
 3.06000e-01       3.12397e-08       1.06607e-09       9.96701e-15       3.93383e-11       5.19452e-01       4.12804e-02       5.19452e-01      
 3.15000e-01       3.99520e-08       1.38498e-09       1.03577e-14       5.09268e-11       5.19452e-01       4.15173e-02       5.19452e-01      
 3.24000e-01       5.07826e-08       1.79155e-09       1.07867e-14       6.55873e-11       5.19452e-01       4.18155e-02       5.19452e-01      
 3.33000e-01       6.41269e-08       2.30660e-09       1.12535e-14       8.39837e-11       5.19452e-01       4.21876e-02       5.19452e-01      
 3.42000e-01       8.04147e-08       2.95467e-09       1.17569e-14       1.06865e-10       5.19452e-01       4.26471e-02       5.19452e-01      
 3.51000e-01       1.00102e-07       3.76427e-09       1.22949e-14       1.35055e-10       5.19452e-01       4.32085e-02       5.19452e-01      
 3.60000e-01       1.23662e-07       4.76812e-09       1.28651e-14       1.69442e-10       5.19452e-01       4.38862e-02       5.19452e-01      
 3.69000e-01       1.51570e-07       6.00323e-09       1.34644e-14       2.10952e-10       5.19452e-01       4.46946e-02       5.19452e-01      
 3.78000e-01       1.84297e-07       7.51085e-09       1.40893e-14       2.60531e-10       5.19452e-01       4.56470e-02       5.19452e-01      
 3.87000e-01       2.22295e-07       9.33639e-09       1.47357e-14       3.19116e-10       5.19452e-01       4.67549e-02       5.19452e-01      
 3.96000e-01       2.65994e-07       1.15293e-08       1.53994e-14       3.87619e-10       5.19452e-01       4.80281e-02       5.19452e-01      
 4.05000e-01       3.15806e-07       1.41426e-08       1.60760e-14       4.66903e-10       5.19452e-01       4.94737e-02       5.19452e-01      
 4.14000e-01       3.72134e-07       1.72333e-08       1.67607e-14       5.57779e-10       5.19452e-01       5.10970e-02       5.19452e-01      
 4.23000e-01       4.35387e-07       2.08618e-08       1.74490e-14       6.61005e-10       5.19452e-01       5.29008e-02       5.19452e-01      
 4.32000e-01       5.06002e-07       2.50924e-08       1.81364e-14       7.77295e-10       5.19452e-01       5.48864e-02       5.19452e-01      
 4.41000e-01       5.84462e-07       2.99934e-08       1.88187e-14       9.07328e-10       5.19452e-01       5.70541e-02       5.19452e-01      
 4.50000e-01       6.71307e-07       3.56378e-08       1.94919e-14       1.05177e-09       5.19452e-01       5.94032e-02       5.19452e-01      
 4.59000e-01       7.67139e-07       4.21039e-08       2.01525e-14       1.21130e-09       5.19452e-01       6.19329e-02       5.19452e-01      
 4.68000e-01       8.72618e-07       4.94753e-08       2.07971e-14       1.38660e-09       5.19452e-01       6.46423e-02       5.19452e-01      
 4.77000e-01       9.88443e-07       5.78420e-08       2.14232e-14       1.57838e-09       5.19452e-01       6.75308e-02       5.19452e-01      
 4.86000e-01       1.11533e-06       6.73004e-08       2.20283e-14       1.78738e-09       5.19452e-01       7.05980e-02       5.19452e-01      
 4.95000e-01       1.25400e-06       7.79533e-08       2.26107e-14       2.01438e-09       5.19452e-01       7.38436e-02       5.19452e-01      
 5.04000e-01       1.40511e-06       8.99097e-08       2.31690e-14       2.26017e-09       5.19452e-01       7.72677e-02       5.19452e-01      
 5.13000e-01       1.56927e-06       1.03284e-07       2.37022e-14       2.52555e-09       5.19452e-01       8.08699e-02       5.19452e-01      
 5.22000e-01       1.74699e-06       1.18197e-07       2.42097e-14       2.81133e-09       5.19452e-01       8.46501e-02       5.19452e-01      
 5.31000e-01       1.93869e-06       1.34772e-07       2.46913e-14       3.11832e-09       5.19452e-01       8.86074e-02       5.19452e-01      
 5.40000e-01       2.14462e-06       1.53136e-07       2.51470e-14       3.44729e-09       5.19452e-01       9.27407e-02       5.19452e-01      
 5.49000e-01       2.36494e-06       1.73419e-07       2.55771e-14       3.79900e-09       5.19452e-01       9.70483e-02       5.19452e-01      
 5.58000e-01       2.59962e-06       1.95748e-07       2.59822e-14       4.17418e-09       5.19452e-01       1.01528e-01       5.19452e-01      
 5.67000e-01       2.84853e-06       2.20254e-07       2.63631e-14       4.57349e-09       5.19452e-01       1.06176e-01       5.19452e-01      
 5.76000e-01       3.11136e-06       2.47064e-07       2.67205e-14       4.99757e-09       5.19452e-01       1.10990e-01       5.19452e-01      
 5.85000e-01       3.38772e-06       2.76299e-07       2.70555e-14       5.44700e-09       5.19452e-01       1.15964e-01       5.19452e-01      
 5.94000e-01       3.67706e-06       3.08081e-07       2.73690e-14       5.92233e-09       5.19452e-01       1.21094e-01       5.19452e-01      
 6.03000e-01       3.97876e-06       3.42524e-07       2.76623e-14       6.42405e-09       5.19452e-01       1.26375e-01       5.19452e-01      
 6.12000e-01       4.29212e-06       3.79734e-07       2.79363e-14       6.95263e-09       5.19452e-01       1.31801e-01       5.19452e-01      
 6.21000e-01       4.61637e-06       4.19815e-07       2.81922e-14       7.50849e-09       5.19452e-01       1.37365e-01       5.19452e-01      
 6.30000e-01       4.95070e-06       4.62859e-07       2.84311e-14       8.09204e-09       5.19452e-01       1.43062e-01       5.19452e-01      
 6.39000e-01       5.29428e-06       5.08955e-07       2.86541e-14       8.70367e-09       5.19452e-01       1.48885e-01       5.19452e-01      
 6.48000e-01       5.64626e-06       5.58181e-07       2.88622e-14       9.34375e-09       5.19452e-01       1.54826e-01       5.19452e-01      
 6.57000e-01       6.00581e-06       6.10610e-07       2.90565e-14       1.00127e-08       5.19452e-01       1.60881e-01       5.19452e-01      
 6.66000e-01       6.37211e-06       6.66306e-07       2.92380e-14       1.07108e-08       5.19452e-01       1.67042e-01       5.19452e-01      
 6.75000e-01       6.74438e-06       7.25326e-07       2.94075e-14       1.14385e-08       5.19452e-01       1.73302e-01       5.19452e-01      
 6.84000e-01       7.12186e-06       7.87721e-07       2.95659e-14       1.21962e-08       5.19452e-01       1.79657e-01       5.19452e-01      
 6.93000e-01       7.50384e-06       8.53533e-07       2.97141e-14       1.29844e-08       5.19452e-01       1.86099e-01       5.19452e-01      
 7.02000e-01       7.88965e-06       9.22801e-07       2.98528e-14       1.38036e-08       5.19452e-01       1.92623e-01       5.19452e-01      
 7.11000e-01       8.27869e-06       9.95556e-07       2.99828e-14       1.46541e-08       5.19452e-01       1.99223e-01       5.19452e-01      
 7.20000e-01       8.67038e-06       1.07183e-06       3.01047e-14       1.55367e-08       5.19452e-01       2.05895e-01       5.19452e-01      
 7.29000e-01       9.06421e-06       1.15163e-06       3.02191e-14       1.64520e-08       5.19452e-01       2.12634e-01       5.19452e-01      
 7.38000e-01       9.45971e-06       1.23499e-06       3.03266e-14       1.74005e-08       5.19452e-01       2.19435e-01       5.19452e-01      
 7.47000e-01       9.85645e-06       1.32191e-06       3.04277e-14       1.83831e-08       5.19452e-01       2.26294e-01       5.19452e-01      
 7.56000e-01       1.02541e-05       1.41240e-06       3.05230e-14       1.94005e-08       5.19452e-01       2.33206e-01       5.19452e-01      
 7.65000e-01       1.06522e-05       1.50648e-06       3.06129e-14       2.04536e-08       5.19452e-01       2.40169e-01       5.19452e-01      
 7.74000e-01       1.10505e-05       1.60415e-06       3.06978e-14       2.15433e-08       5.19452e-01       2.47179e-01       5.19452e-01      
 7.83000e-01       1.14488e-05       1.70539e-06       3.07781e-14       2.26708e-08       5.19452e-01       2.54232e-01       5.19452e-01      
 7.92000e-01       1.18468e-05       1.81022e-06       3.08541e-14       2.38371e-08       5.19452e-01       2.61327e-01       5.19452e-01      
 8.01000e-01       1.22443e-05       1.91863e-06       3.09262e-14       2.50434e-08       5.19452e-01       2.68459e-01       5.19452e-01      
 8.10000e-01       1.26411e-05       2.03062e-06       3.09947e-14       2.62910e-08       5.19452e-01       2.75627e-01       5.19452e-01      
 8.19000e-01       1.30371e-05       2.14617e-06       3.10599e-14       2.75814e-08       5.19452e-01       2.82829e-01       5.19452e-01      
 8.28000e-01       1.34320e-05       2.26528e-06       3.11220e-14       2.89161e-08       5.19452e-01       2.90063e-01       5.19452e-01      
 8.37000e-01       1.38258e-05       2.38795e-06       3.11811e-14       3.02968e-08       5.19452e-01       2.97326e-01       5.19452e-01      
 8.46000e-01       1.42183e-05       2.51414e-06       3.12377e-14       3.17252e-08       5.19452e-01       3.04617e-01       5.19452e-01      
 8.55000e-01       1.46095e-05       2.64387e-06       3.12918e-14       3.32032e-08       5.19452e-01       3.11934e-01       5.19452e-01      
 8.64000e-01       1.49992e-05       2.77711e-06       3.13436e-14       3.47330e-08       5.19452e-01       3.19277e-01       5.19452e-01      
 8.73000e-01       1.53873e-05       2.91385e-06       3.13933e-14       3.63166e-08       5.19452e-01       3.26644e-01       5.19452e-01      
 8.82000e-01       1.57738e-05       3.05408e-06       3.14410e-14       3.79566e-08       5.19452e-01       3.34033e-01       5.19452e-01      
 8.91000e-01       1.61586e-05       3.19778e-06       3.14869e-14       3.96555e-08       5.19452e-01       3.41444e-01       5.19452e-01      
 9.00000e-01       1.65417e-05       3.34493e-06       3.15312e-14       4.14160e-08       5.19452e-01       3.48876e-01       5.19452e-01      
 9.09000e-01       1.69229e-05       3.49552e-06       3.15738e-14       4.32411e-08       5.19452e-01       3.56328e-01       5.19452e-01      
 9.18000e-01       1.73021e-05       3.64953e-06       3.16150e-14       4.51341e-08       5.19452e-01       3.63799e-01       5.19452e-01      
 9.27000e-01       1.76794e-05       3.80695e-06       3.16548e-14       4.70984e-08       5.19452e-01       3.71289e-01       5.19452e-01      
 9.36000e-01       1.80547e-05       3.96776e-06       3.16934e-14       4.91376e-08       5.19452e-01       3.78796e-01       5.19452e-01      
 9.45000e-01       1.84279e-05       4.13193e-06       3.17308e-14       5.12559e-08       5.19452e-01       3.86321e-01       5.19452e-01      
 9.54000e-01       1.87990e-05       4.29945e-06       3.17670e-14       5.34575e-08       5.19452e-01       3.93863e-01       5.19452e-01      
 9.63000e-01       1.91679e-05       4.47031e-06       3.18023e-14       5.57470e-08       5.19452e-01       4.01422e-01       5.19452e-01      
 9.72000e-01       1.95345e-05       4.64447e-06       3.18365e-14       5.81297e-08       5.19452e-01       4.08996e-01       5.19452e-01      
 9.81000e-01       1.98988e-05       4.82192e-06       3.18699e-14       6.06108e-08       5.19452e-01       4.16586e-01       5.19452e-01      
 9.90000e-01       2.02608e-05       5.00264e-06       3.19025e-14       6.31964e-08       5.19452e-01       4.24192e-01       5.19452e-01      
 9.99000e-01       2.06204e-05       5.18661e-06       3.19343e-14       6.58927e-08       5.19452e-01       4.31813e-01       5.19452e-01      
 1.00800e+00       2.09775e-05       5.37380e-06       3.19654e-14       6.87068e-08       5.19452e-01       4.39449e-01       5.19452e-01      
 1.01700e+00       2.13321e-05       5.56420e-06       3.19958e-14       7.16463e-08       5.19452e-01       4.47100e-01       5.19452e-01      
 1.02600e+00       2.16841e-05       5.75777e-06       3.20256e-14       7.47191e-08       5.19452e-01       4.54765e-01       5.19452e-01      
 1.03500e+00       2.20334e-05       5.95450e-06       3.20548e-14       7.79344e-08       5.19452e-01       4.62445e-01       5.19452e-01      
 1.04400e+00       2.23801e-05       6.15436e-06       3.20835e-14       8.13018e-08       5.19452e-01       4.70139e-01       5.19452e-01      
 1.05300e+00       2.27240e-05       6.35734e-06       3.21117e-14       8.48318e-08       5.19452e-01       4.77847e-01       5.19452e-01      
 1.06200e+00       2.30651e-05       6.56339e-06       3.21395e-14       8.85361e-08       5.19452e-01       4.85569e-01       5.19452e-01      
 1.07100e+00       2.34033e-05       6.77250e-06       3.21668e-14       9.24273e-08       5.19452e-01       4.93305e-01       5.19452e-01      
 1.08000e+00       2.37386e-05       6.98464e-06       3.21938e-14       9.65192e-08       5.19452e-01       5.01055e-01       5.19452e-01      
 1.08900e+00       2.40709e-05       7.19978e-06       3.22205e-14       1.00827e-07       5.19452e-01       5.08819e-01       5.19452e-01      
 1.09800e+00       2.44001e-05       7.41790e-06       3.22469e-14       1.05367e-07       5.19452e-01       5.16597e-01       5.19452e-01      
 1.10700e+00       2.47262e-05       7.63898e-06       3.22730e-14       1.10158e-07       5.19452e-01       5.24389e-01       5.19452e-01      
 1.11600e+00       2.50490e-05       7.86297e-06       3.22989e-14       1.15220e-07       5.19452e-01       5.32194e-01       5.19452e-01      
 1.12500e+00       2.53687e-05       8.08985e-06       3.23246e-14       1.20575e-07       5.19452e-01       5.40014e-01       5.19452e-01      
 1.13400e+00       2.56849e-05       8.31959e-06       3.23501e-14       1.26247e-07       5.19452e-01       5.47847e-01       5.19452e-01      
 1.14300e+00       2.59978e-05       8.55217e-06       3.23755e-14       1.32264e-07       5.19452e-01       5.55693e-01       5.19452e-01      
 1.15200e+00       2.63072e-05       8.78754e-06       3.24008e-14       1.38655e-07       5.19452e-01       5.63554e-01       5.19452e-01      
 1.16100e+00       2.66131e-05       9.02569e-06       3.24261e-14       1.45454e-07       5.19452e-01       5.71428e-01       5.19452e-01      
 1.17000e+00       2.69153e-05       9.26657e-06       3.24513e-14       1.52696e-07       5.19452e-01       5.79317e-01       5.19452e-01      
 1.17900e+00       2.72137e-05       9.51015e-06       3.24766e-14       1.60424e-07       5.19452e-01       5.87219e-01       5.19452e-01      
 1.18800e+00       2.75084e-05       9.75640e-06       3.25019e-14       1.68681e-07       5.19452e-01       5.95135e-01       5.19452e-01      
 1.19700e+00       2.77992e-05       1.00053e-05       3.25273e-14       1.77518e-07       5.19452e-01       6.03065e-01       5.19452e-01      
 1.20600e+00       2.80859e-05       1.02568e-05       3.25528e-14       1.86993e-07       5.19452e-01       6.11009e-01       5.19452e-01      
 1.21500e+00       2.83686e-05       1.05108e-05       3.25784e-14       1.97166e-07       5.19452e-01       6.18966e-01       5.19452e-01      
