
dc (V)            getData("M0:gm    getData("M0:id    getData("M0:cg    getData("M0:gd    getData("M0:vt    getData("M0:vd    getData("M0:vt

 0.00000e+00       8.25444e-13       4.42247e-14       4.27929e-15       5.87973e-16       4.85730e-01       3.92741e-02       4.85730e-01      
 9.00000e-03       1.10702e-12       5.19725e-14       4.26170e-15       7.88645e-16       4.85730e-01       3.92742e-02       4.85730e-01      
 1.80000e-02       1.48457e-12       6.27627e-14       4.24486e-15       1.05776e-15       4.85730e-01       3.92742e-02       4.85730e-01      
 2.70000e-02       1.99074e-12       7.75900e-14       4.22881e-15       1.41865e-15       4.85730e-01       3.92743e-02       4.85730e-01      
 3.60000e-02       2.66928e-12       9.77918e-14       4.21363e-15       1.90256e-15       4.85730e-01       3.92744e-02       4.85730e-01      
 4.50000e-02       3.57875e-12       1.25163e-13       4.19938e-15       2.55137e-15       4.85730e-01       3.92745e-02       4.85730e-01      
 5.40000e-02       4.79758e-12       1.62112e-13       4.18615e-15       3.42120e-15       4.85730e-01       3.92746e-02       4.85730e-01      
 6.30000e-02       6.43068e-12       2.11868e-13       4.17406e-15       4.58718e-15       4.85730e-01       3.92748e-02       4.85730e-01      
 7.20000e-02       8.61841e-12       2.78755e-13       4.16325e-15       6.14993e-15       4.85730e-01       3.92750e-02       4.85730e-01      
 8.10000e-02       1.15484e-11       3.68565e-13       4.15390e-15       8.24412e-15       4.85730e-01       3.92754e-02       4.85730e-01      
 9.00000e-02       1.54713e-11       4.89051e-13       4.14623e-15       1.10499e-14       4.85730e-01       3.92758e-02       4.85730e-01      
 9.90000e-02       2.07218e-11       6.50583e-13       4.14050e-15       1.48083e-14       4.85730e-01       3.92764e-02       4.85730e-01      
 1.08000e-01       2.77463e-11       8.67024e-13       4.13703e-15       1.98413e-14       4.85730e-01       3.92773e-02       4.85730e-01      
 1.17000e-01       3.71399e-11       1.15689e-12       4.13621e-15       2.65791e-14       4.85730e-01       3.92783e-02       4.85730e-01      
 1.26000e-01       4.96929e-11       1.54491e-12       4.13840e-15       3.55957e-14       4.85730e-01       3.92798e-02       4.85730e-01      
 1.35000e-01       6.64554e-11       2.06402e-12       4.14410e-15       4.76558e-14       4.85730e-01       3.92817e-02       4.85730e-01      
 1.44000e-01       8.88231e-11       2.75810e-12       4.15412e-15       6.37781e-14       4.85730e-01       3.92843e-02       4.85730e-01      
 1.53000e-01       1.18643e-10       3.68556e-12       4.16919e-15       8.53173e-14       4.85730e-01       3.92878e-02       4.85730e-01      
 1.62000e-01       1.58355e-10       4.92397e-12       4.19018e-15       1.14072e-13       4.85730e-01       3.92925e-02       4.85730e-01      
 1.71000e-01       2.11175e-10       6.57620e-12       4.21808e-15       1.52427e-13       4.85730e-01       3.92987e-02       4.85730e-01      
 1.80000e-01       2.81325e-10       8.77842e-12       4.25400e-15       2.03534e-13       4.85730e-01       3.93069e-02       4.85730e-01      
 1.89000e-01       3.74332e-10       1.17104e-11       4.29918e-15       2.71551e-13       4.85730e-01       3.93179e-02       4.85730e-01      
 1.98000e-01       4.97400e-10       1.56091e-11       4.35493e-15       3.61948e-13       4.85730e-01       3.93325e-02       4.85730e-01      
 2.07000e-01       6.59869e-10       2.07852e-11       4.42270e-15       4.81887e-13       4.85730e-01       3.93518e-02       4.85730e-01      
 2.16000e-01       8.73783e-10       2.76456e-11       4.50394e-15       6.40714e-13       4.85730e-01       3.93775e-02       4.85730e-01      
 2.25000e-01       1.15457e-09       3.67200e-11       4.60015e-15       8.50562e-13       4.85730e-01       3.94113e-02       4.85730e-01      
 2.34000e-01       1.52185e-09       4.86955e-11       4.71278e-15       1.12708e-12       4.85730e-01       3.94559e-02       4.85730e-01      
 2.43000e-01       2.00035e-09       6.44578e-11       4.84321e-15       1.49033e-12       4.85730e-01       3.95144e-02       4.85730e-01      
 2.52000e-01       2.62095e-09       8.51423e-11       4.99266e-15       1.96579e-12       4.85730e-01       3.95909e-02       4.85730e-01      
 2.61000e-01       3.42176e-09       1.12194e-10       5.16216e-15       2.58555e-12       4.85730e-01       3.96906e-02       4.85730e-01      
 2.70000e-01       4.44932e-09       1.47439e-10       5.35248e-15       3.38953e-12       4.85730e-01       3.98198e-02       4.85730e-01      
 2.79000e-01       5.75961e-09       1.93162e-10       5.56409e-15       4.42681e-12       4.85730e-01       3.99861e-02       4.85730e-01      
 2.88000e-01       7.41909e-09       2.52201e-10       5.79715e-15       5.75679e-12       4.85730e-01       4.01990e-02       4.85730e-01      
 2.97000e-01       9.50534e-09       3.28040e-10       6.05142e-15       7.45018e-12       4.85730e-01       4.04693e-02       4.85730e-01      
 3.06000e-01       1.21074e-08       4.24914e-10       6.32633e-15       9.58948e-12       4.85730e-01       4.08097e-02       4.85730e-01      
 3.15000e-01       1.53253e-08       5.47909e-10       6.62093e-15       1.22689e-11       4.85730e-01       4.12344e-02       4.85730e-01      
 3.24000e-01       1.92696e-08       7.03060e-10       6.93391e-15       1.55934e-11       4.85730e-01       4.17588e-02       4.85730e-01      
 3.33000e-01       2.40588e-08       8.97436e-10       7.26364e-15       1.96767e-11       4.85730e-01       4.23991e-02       4.85730e-01      
 3.42000e-01       2.98174e-08       1.13920e-09       7.60819e-15       2.46383e-11       4.85730e-01       4.31719e-02       4.85730e-01      
 3.51000e-01       3.66714e-08       1.43765e-09       7.96538e-15       3.05995e-11       4.85730e-01       4.40929e-02       4.85730e-01      
 3.60000e-01       4.47450e-08       1.80321e-09       8.33285e-15       3.76793e-11       4.85730e-01       4.51769e-02       4.85730e-01      
 3.69000e-01       5.41558e-08       2.24739e-09       8.70809e-15       4.59900e-11       4.85730e-01       4.64363e-02       4.85730e-01      
 3.78000e-01       6.50123e-08       2.78273e-09       9.08855e-15       5.56329e-11       4.85730e-01       4.78812e-02       4.85730e-01      
 3.87000e-01       7.74120e-08       3.42269e-09       9.47163e-15       6.66961e-11       4.85730e-01       4.95188e-02       4.85730e-01      
 3.96000e-01       9.14426e-08       4.18156e-09       9.85482e-15       7.92528e-11       4.85730e-01       5.13533e-02       4.85730e-01      
 4.05000e-01       1.07185e-07       5.07440e-09       1.02357e-14       9.33618e-11       4.85730e-01       5.33866e-02       4.85730e-01      
 4.14000e-01       1.24720e-07       6.11698e-09       1.06120e-14       1.09069e-10       4.85730e-01       5.56182e-02       4.85730e-01      
 4.23000e-01       1.44128e-07       7.32578e-09       1.09816e-14       1.26409e-10       4.85730e-01       5.80463e-02       4.85730e-01      
 4.32000e-01       1.65500e-07       8.71808e-09       1.13427e-14       1.45411e-10       4.85730e-01       6.06681e-02       4.85730e-01      
 4.41000e-01       1.88935e-07       1.03120e-08       1.16938e-14       1.66097e-10       4.85730e-01       6.34804e-02       4.85730e-01      
 4.50000e-01       2.14541e-07       1.21266e-08       1.20334e-14       1.88490e-10       4.85730e-01       6.64799e-02       4.85730e-01      
 4.59000e-01       2.42431e-07       1.41818e-08       1.23605e-14       2.12610e-10       4.85730e-01       6.96635e-02       4.85730e-01      
 4.68000e-01       2.72720e-07       1.64989e-08       1.26743e-14       2.38477e-10       4.85730e-01       7.30285e-02       4.85730e-01      
 4.77000e-01       3.05518e-07       1.90998e-08       1.29741e-14       2.66115e-10       4.85730e-01       7.65724e-02       4.85730e-01      
 4.86000e-01       3.40927e-07       2.20077e-08       1.32596e-14       2.95543e-10       4.85730e-01       8.02929e-02       4.85730e-01      
 4.95000e-01       3.79030e-07       2.52464e-08       1.35306e-14       3.26784e-10       4.85730e-01       8.41880e-02       4.85730e-01      
 5.04000e-01       4.19891e-07       2.88404e-08       1.37871e-14       3.59857e-10       4.85730e-01       8.82553e-02       4.85730e-01      
 5.13000e-01       4.63548e-07       3.28149e-08       1.40292e-14       3.94778e-10       4.85730e-01       9.24924e-02       4.85730e-01      
 5.22000e-01       5.10015e-07       3.71949e-08       1.42573e-14       4.31561e-10       4.85730e-01       9.68965e-02       4.85730e-01      
 5.31000e-01       5.59275e-07       4.20058e-08       1.44717e-14       4.70214e-10       4.85730e-01       1.01465e-01       4.85730e-01      
 5.40000e-01       6.11288e-07       4.72725e-08       1.46729e-14       5.10742e-10       4.85730e-01       1.06193e-01       4.85730e-01      
 5.49000e-01       6.65984e-07       5.30196e-08       1.48615e-14       5.53143e-10       4.85730e-01       1.11078e-01       4.85730e-01      
 5.58000e-01       7.23274e-07       5.92707e-08       1.50379e-14       5.97413e-10       4.85730e-01       1.16114e-01       4.85730e-01      
 5.67000e-01       7.83044e-07       6.60487e-08       1.52028e-14       6.43540e-10       4.85730e-01       1.21298e-01       4.85730e-01      
 5.76000e-01       8.45166e-07       7.33754e-08       1.53569e-14       6.91510e-10       4.85730e-01       1.26623e-01       4.85730e-01      
 5.85000e-01       9.09498e-07       8.12712e-08       1.55007e-14       7.41303e-10       4.85730e-01       1.32084e-01       4.85730e-01      
 5.94000e-01       9.75887e-07       8.97555e-08       1.56348e-14       7.92898e-10       4.85730e-01       1.37676e-01       4.85730e-01      
 6.03000e-01       1.04417e-06       9.88459e-08       1.57600e-14       8.46267e-10       4.85730e-01       1.43392e-01       4.85730e-01      
 6.12000e-01       1.11420e-06       1.08559e-07       1.58768e-14       9.01384e-10       4.85730e-01       1.49226e-01       4.85730e-01      
 6.21000e-01       1.18580e-06       1.18909e-07       1.59857e-14       9.58219e-10       4.85730e-01       1.55173e-01       4.85730e-01      
 6.30000e-01       1.25882e-06       1.29911e-07       1.60873e-14       1.01674e-09       4.85730e-01       1.61226e-01       4.85730e-01      
 6.39000e-01       1.33310e-06       1.41575e-07       1.61821e-14       1.07692e-09       4.85730e-01       1.67379e-01       4.85730e-01      
 6.48000e-01       1.40850e-06       1.53913e-07       1.62707e-14       1.13872e-09       4.85730e-01       1.73627e-01       4.85730e-01      
 6.57000e-01       1.48487e-06       1.66934e-07       1.63534e-14       1.20212e-09       4.85730e-01       1.79965e-01       4.85730e-01      
 6.66000e-01       1.56209e-06       1.80646e-07       1.64308e-14       1.26708e-09       4.85730e-01       1.86386e-01       4.85730e-01      
 6.75000e-01       1.64003e-06       1.95056e-07       1.65031e-14       1.33357e-09       4.85730e-01       1.92886e-01       4.85730e-01      
 6.84000e-01       1.71858e-06       2.10171e-07       1.65709e-14       1.40157e-09       4.85730e-01       1.99459e-01       4.85730e-01      
 6.93000e-01       1.79764e-06       2.25995e-07       1.66345e-14       1.47105e-09       4.85730e-01       2.06102e-01       4.85730e-01      
 7.02000e-01       1.87712e-06       2.42532e-07       1.66941e-14       1.54199e-09       4.85730e-01       2.12810e-01       4.85730e-01      
 7.11000e-01       1.95692e-06       2.59786e-07       1.67501e-14       1.61435e-09       4.85730e-01       2.19579e-01       4.85730e-01      
 7.20000e-01       2.03698e-06       2.77760e-07       1.68028e-14       1.68813e-09       4.85730e-01       2.26405e-01       4.85730e-01      
 7.29000e-01       2.11723e-06       2.96455e-07       1.68524e-14       1.76329e-09       4.85730e-01       2.33285e-01       4.85730e-01      
 7.38000e-01       2.19759e-06       3.15872e-07       1.68991e-14       1.83983e-09       4.85730e-01       2.40216e-01       4.85730e-01      
 7.47000e-01       2.27803e-06       3.36013e-07       1.69433e-14       1.91773e-09       4.85730e-01       2.47194e-01       4.85730e-01      
 7.56000e-01       2.35849e-06       3.56878e-07       1.69850e-14       1.99696e-09       4.85730e-01       2.54216e-01       4.85730e-01      
 7.65000e-01       2.43892e-06       3.78467e-07       1.70245e-14       2.07753e-09       4.85730e-01       2.61281e-01       4.85730e-01      
 7.74000e-01       2.51930e-06       4.00780e-07       1.70619e-14       2.15942e-09       4.85730e-01       2.68386e-01       4.85730e-01      
 7.83000e-01       2.59958e-06       4.23816e-07       1.70974e-14       2.24263e-09       4.85730e-01       2.75529e-01       4.85730e-01      
 7.92000e-01       2.67974e-06       4.47573e-07       1.71312e-14       2.32713e-09       4.85730e-01       2.82707e-01       4.85730e-01      
 8.01000e-01       2.75975e-06       4.72051e-07       1.71633e-14       2.41294e-09       4.85730e-01       2.89920e-01       4.85730e-01      
 8.10000e-01       2.83959e-06       4.97249e-07       1.71939e-14       2.50005e-09       4.85730e-01       2.97165e-01       4.85730e-01      
 8.19000e-01       2.91923e-06       5.23164e-07       1.72231e-14       2.58845e-09       4.85730e-01       3.04441e-01       4.85730e-01      
 8.28000e-01       2.99866e-06       5.49794e-07       1.72510e-14       2.67815e-09       4.85730e-01       3.11747e-01       4.85730e-01      
 8.37000e-01       3.07786e-06       5.77139e-07       1.72776e-14       2.76914e-09       4.85730e-01       3.19081e-01       4.85730e-01      
 8.46000e-01       3.15681e-06       6.05195e-07       1.73032e-14       2.86143e-09       4.85730e-01       3.26443e-01       4.85730e-01      
 8.55000e-01       3.23550e-06       6.33960e-07       1.73277e-14       2.95503e-09       4.85730e-01       3.33831e-01       4.85730e-01      
 8.64000e-01       3.31392e-06       6.63433e-07       1.73512e-14       3.04993e-09       4.85730e-01       3.41245e-01       4.85730e-01      
 8.73000e-01       3.39205e-06       6.93609e-07       1.73738e-14       3.14614e-09       4.85730e-01       3.48684e-01       4.85730e-01      
 8.82000e-01       3.46989e-06       7.24488e-07       1.73956e-14       3.24368e-09       4.85730e-01       3.56146e-01       4.85730e-01      
 8.91000e-01       3.54742e-06       7.56066e-07       1.74165e-14       3.34254e-09       4.85730e-01       3.63632e-01       4.85730e-01      
 9.00000e-01       3.62462e-06       7.88339e-07       1.74367e-14       3.44274e-09       4.85730e-01       3.71141e-01       4.85730e-01      
 9.09000e-01       3.70150e-06       8.21307e-07       1.74562e-14       3.54430e-09       4.85730e-01       3.78672e-01       4.85730e-01      
 9.18000e-01       3.77804e-06       8.54964e-07       1.74751e-14       3.64721e-09       4.85730e-01       3.86224e-01       4.85730e-01      
 9.27000e-01       3.85423e-06       8.89309e-07       1.74933e-14       3.75150e-09       4.85730e-01       3.93799e-01       4.85730e-01      
 9.36000e-01       3.93005e-06       9.24338e-07       1.75110e-14       3.85718e-09       4.85730e-01       4.01394e-01       4.85730e-01      
 9.45000e-01       4.00552e-06       9.60047e-07       1.75281e-14       3.96426e-09       4.85730e-01       4.09010e-01       4.85730e-01      
 9.54000e-01       4.08060e-06       9.96434e-07       1.75447e-14       4.07277e-09       4.85730e-01       4.16647e-01       4.85730e-01      
 9.63000e-01       4.15529e-06       1.03350e-06       1.75608e-14       4.18271e-09       4.85730e-01       4.24304e-01       4.85730e-01      
 9.72000e-01       4.22959e-06       1.07123e-06       1.75765e-14       4.29410e-09       4.85730e-01       4.31980e-01       4.85730e-01      
 9.81000e-01       4.30348e-06       1.10962e-06       1.75917e-14       4.40697e-09       4.85730e-01       4.39677e-01       4.85730e-01      
 9.90000e-01       4.37696e-06       1.14869e-06       1.76065e-14       4.52134e-09       4.85730e-01       4.47394e-01       4.85730e-01      
 9.99000e-01       4.45001e-06       1.18841e-06       1.76209e-14       4.63722e-09       4.85730e-01       4.55129e-01       4.85730e-01      
 1.00800e+00       4.52263e-06       1.22878e-06       1.76349e-14       4.75465e-09       4.85730e-01       4.62885e-01       4.85730e-01      
 1.01700e+00       4.59480e-06       1.26981e-06       1.76486e-14       4.87363e-09       4.85730e-01       4.70660e-01       4.85730e-01      
 1.02600e+00       4.66652e-06       1.31149e-06       1.76619e-14       4.99421e-09       4.85730e-01       4.78454e-01       4.85730e-01      
 1.03500e+00       4.73778e-06       1.35380e-06       1.76750e-14       5.11639e-09       4.85730e-01       4.86267e-01       4.85730e-01      
 1.04400e+00       4.80856e-06       1.39676e-06       1.76877e-14       5.24022e-09       4.85730e-01       4.94099e-01       4.85730e-01      
 1.05300e+00       4.87887e-06       1.44035e-06       1.77001e-14       5.36571e-09       4.85730e-01       5.01951e-01       4.85730e-01      
 1.06200e+00       4.94868e-06       1.48458e-06       1.77122e-14       5.49291e-09       4.85730e-01       5.09821e-01       4.85730e-01      
 1.07100e+00       5.01800e-06       1.52943e-06       1.77241e-14       5.62183e-09       4.85730e-01       5.17711e-01       4.85730e-01      
 1.08000e+00       5.08681e-06       1.57490e-06       1.77357e-14       5.75251e-09       4.85730e-01       5.25619e-01       4.85730e-01      
 1.08900e+00       5.15510e-06       1.62099e-06       1.77471e-14       5.88499e-09       4.85730e-01       5.33547e-01       4.85730e-01      
 1.09800e+00       5.22287e-06       1.66769e-06       1.77582e-14       6.01929e-09       4.85730e-01       5.41494e-01       4.85730e-01      
 1.10700e+00       5.29010e-06       1.71499e-06       1.77691e-14       6.15546e-09       4.85730e-01       5.49460e-01       4.85730e-01      
 1.11600e+00       5.35679e-06       1.76290e-06       1.77798e-14       6.29354e-09       4.85730e-01       5.57446e-01       4.85730e-01      
 1.12500e+00       5.42293e-06       1.81141e-06       1.77903e-14       6.43355e-09       4.85730e-01       5.65450e-01       4.85730e-01      
 1.13400e+00       5.48851e-06       1.86051e-06       1.78006e-14       6.57554e-09       4.85730e-01       5.73474e-01       4.85730e-01      
 1.14300e+00       5.55352e-06       1.91020e-06       1.78107e-14       6.71957e-09       4.85730e-01       5.81517e-01       4.85730e-01      
 1.15200e+00       5.61795e-06       1.96047e-06       1.78206e-14       6.86565e-09       4.85730e-01       5.89579e-01       4.85730e-01      
 1.16100e+00       5.68180e-06       2.01132e-06       1.78303e-14       7.01386e-09       4.85730e-01       5.97661e-01       4.85730e-01      
 1.17000e+00       5.74506e-06       2.06274e-06       1.78398e-14       7.16422e-09       4.85730e-01       6.05762e-01       4.85730e-01      
 1.17900e+00       5.80772e-06       2.11473e-06       1.78492e-14       7.31680e-09       4.85730e-01       6.13882e-01       4.85730e-01      
 1.18800e+00       5.86978e-06       2.16728e-06       1.78584e-14       7.47165e-09       4.85730e-01       6.22023e-01       4.85730e-01      
 1.19700e+00       5.93122e-06       2.22038e-06       1.78674e-14       7.62881e-09       4.85730e-01       6.30183e-01       4.85730e-01      
 1.20600e+00       5.99204e-06       2.27404e-06       1.78763e-14       7.78835e-09       4.85730e-01       6.38362e-01       4.85730e-01      
 1.21500e+00       6.05224e-06       2.32823e-06       1.78851e-14       7.95032e-09       4.85730e-01       6.46562e-01       4.85730e-01      
