
dc (V)            getData("M0:gm    getData("M0:id    getData("M0:cg    getData("M0:gd    getData("M0:vt    getData("M0:vd    getData("M0:vt

 0.00000e+00       2.90805e-12       1.11106e-13       5.44827e-15       4.61492e-15       5.22876e-01       4.09494e-02       5.22876e-01      
 9.00000e-03       3.89339e-12       1.41498e-13       5.42460e-15       6.17911e-15       5.22876e-01       4.09494e-02       5.22876e-01      
 1.80000e-02       5.21238e-12       1.82185e-13       5.40169e-15       8.27326e-15       5.22876e-01       4.09495e-02       5.22876e-01      
 2.70000e-02       6.97789e-12       2.36656e-13       5.37956e-15       1.10768e-14       5.22876e-01       4.09495e-02       5.22876e-01      
 3.60000e-02       9.34091e-12       3.09575e-13       5.35824e-15       1.48298e-14       5.22876e-01       4.09495e-02       5.22876e-01      
 4.50000e-02       1.25034e-11       4.07184e-13       5.33775e-15       1.98536e-14       5.22876e-01       4.09496e-02       5.22876e-01      
 5.40000e-02       1.67353e-11       5.37835e-13       5.31812e-15       2.65780e-14       5.22876e-01       4.09496e-02       5.22876e-01      
 6.30000e-02       2.23976e-11       7.12698e-13       5.29943e-15       3.55779e-14       5.22876e-01       4.09497e-02       5.22876e-01      
 7.20000e-02       2.99728e-11       9.46714e-13       5.28172e-15       4.76223e-14       5.22876e-01       4.09499e-02       5.22876e-01      
 8.10000e-02       4.01052e-11       1.25986e-12       5.26510e-15       6.37391e-14       5.22876e-01       4.09500e-02       5.22876e-01      
 9.00000e-02       5.36557e-11       1.67883e-12       5.24967e-15       8.53028e-14       5.22876e-01       4.09502e-02       5.22876e-01      
 9.90000e-02       7.17729e-11       2.23932e-12       5.23557e-15       1.14150e-13       5.22876e-01       4.09505e-02       5.22876e-01      
 1.08000e-01       9.59894e-11       2.98899e-12       5.22296e-15       1.52733e-13       5.22876e-01       4.09509e-02       5.22876e-01      
 1.17000e-01       1.28348e-10       3.99149e-12       5.21206e-15       2.04327e-13       5.22876e-01       4.09514e-02       5.22876e-01      
 1.26000e-01       1.71570e-10       5.33176e-12       5.20313e-15       2.73304e-13       5.22876e-01       4.09521e-02       5.22876e-01      
 1.35000e-01       2.29277e-10       7.12309e-12       5.19647e-15       3.65493e-13       5.22876e-01       4.09530e-02       5.22876e-01      
 1.44000e-01       3.06283e-10       9.51649e-12       5.19247e-15       4.88662e-13       5.22876e-01       4.09542e-02       5.22876e-01      
 1.53000e-01       4.08979e-10       1.27131e-11       5.19158e-15       6.53157e-13       5.22876e-01       4.09558e-02       5.22876e-01      
 1.62000e-01       5.45800e-10       1.69802e-11       5.19407e-15       8.72730e-13       5.22876e-01       4.09579e-02       5.22876e-01      
 1.71000e-01       7.27950e-10       2.26731e-11       5.20084e-15       1.16565e-12       5.22876e-01       4.09608e-02       5.22876e-01      
 1.80000e-01       9.70203e-10       3.02631e-11       5.21266e-15       1.55613e-12       5.22876e-01       4.09646e-02       5.22876e-01      
 1.89000e-01       1.29201e-09       4.03748e-11       5.23042e-15       2.07628e-12       5.22876e-01       4.09697e-02       5.22876e-01      
 1.98000e-01       1.71888e-09       5.38337e-11       5.25511e-15       2.76849e-12       5.22876e-01       4.09765e-02       5.22876e-01      
 2.07000e-01       2.28422e-09       7.17290e-11       5.28791e-15       3.68864e-12       5.22876e-01       4.09855e-02       5.22876e-01      
 2.16000e-01       3.03149e-09       9.54941e-11       5.33009e-15       4.91021e-12       5.22876e-01       4.09975e-02       5.22876e-01      
 2.25000e-01       4.01707e-09       1.27009e-10       5.38310e-15       6.52944e-12       5.22876e-01       4.10133e-02       5.22876e-01      
 2.34000e-01       5.31362e-09       1.68732e-10       5.44849e-15       8.67195e-12       5.22876e-01       4.10343e-02       5.22876e-01      
 2.43000e-01       7.01418e-09       2.23864e-10       5.52790e-15       1.15009e-11       5.22876e-01       4.10620e-02       5.22876e-01      
 2.52000e-01       9.23703e-09       2.96551e-10       5.62304e-15       1.52270e-11       5.22876e-01       4.10984e-02       5.22876e-01      
 2.61000e-01       1.21312e-08       3.92141e-10       5.73565e-15       2.01207e-11       5.22876e-01       4.11462e-02       5.22876e-01      
 2.70000e-01       1.58827e-08       5.17481e-10       5.86742e-15       2.65267e-11       5.22876e-01       4.12087e-02       5.22876e-01      
 2.79000e-01       2.07211e-08       6.81286e-10       6.01994e-15       3.48803e-11       5.22876e-01       4.12902e-02       5.22876e-01      
 2.88000e-01       2.69259e-08       8.94554e-10       6.19464e-15       4.57255e-11       5.22876e-01       4.13957e-02       5.22876e-01      
 2.97000e-01       3.48332e-08       1.17105e-09       6.39271e-15       5.97349e-11       5.22876e-01       4.15318e-02       5.22876e-01      
 3.06000e-01       4.48405e-08       1.52785e-09       6.61507e-15       7.77286e-11       5.22876e-01       4.17061e-02       5.22876e-01      
 3.15000e-01       5.74099e-08       1.98586e-09       6.86229e-15       1.00692e-10       5.22876e-01       4.19279e-02       5.22876e-01      
 3.24000e-01       7.30691e-08       2.57049e-09       7.13454e-15       1.29787e-10       5.22876e-01       4.22078e-02       5.22876e-01      
 3.33000e-01       9.24083e-08       3.31214e-09       7.43161e-15       1.66362e-10       5.22876e-01       4.25578e-02       5.22876e-01      
 3.42000e-01       1.16074e-07       4.24681e-09       7.75285e-15       2.11943e-10       5.22876e-01       4.29914e-02       5.22876e-01      
 3.51000e-01       1.44757e-07       5.41652e-09       8.09719e-15       2.68225e-10       5.22876e-01       4.35227e-02       5.22876e-01      
 3.60000e-01       1.79179e-07       6.86965e-09       8.46314e-15       3.37035e-10       5.22876e-01       4.41665e-02       5.22876e-01      
 3.69000e-01       2.20073e-07       8.66115e-09       8.84885e-15       4.20297e-10       5.22876e-01       4.49373e-02       5.22876e-01      
 3.78000e-01       2.68167e-07       1.08526e-08       9.25211e-15       5.19980e-10       5.22876e-01       4.58490e-02       5.22876e-01      
 3.87000e-01       3.24165e-07       1.35119e-08       9.67043e-15       6.38047e-10       5.22876e-01       4.69139e-02       5.22876e-01      
 3.96000e-01       3.88739e-07       1.67133e-08       1.01011e-14       7.76399e-10       5.22876e-01       4.81425e-02       5.22876e-01      
 4.05000e-01       4.62526e-07       2.05368e-08       1.05412e-14       9.36839e-10       5.22876e-01       4.95430e-02       5.22876e-01      
 4.14000e-01       5.46139e-07       2.50682e-08       1.09878e-14       1.12105e-09       5.22876e-01       5.11212e-02       5.22876e-01      
 4.23000e-01       6.40192e-07       3.03986e-08       1.14379e-14       1.33057e-09       5.22876e-01       5.28809e-02       5.22876e-01      
 4.32000e-01       7.45324e-07       3.66249e-08       1.18885e-14       1.56684e-09       5.22876e-01       5.48239e-02       5.22876e-01      
 4.41000e-01       8.62236e-07       4.38498e-08       1.23368e-14       1.83120e-09       5.22876e-01       5.69508e-02       5.22876e-01      
 4.50000e-01       9.91707e-07       5.21828e-08       1.27802e-14       2.12493e-09       5.22876e-01       5.92610e-02       5.22876e-01      
 4.59000e-01       1.13461e-06       6.17408e-08       1.32163e-14       2.44932e-09       5.22876e-01       6.17537e-02       5.22876e-01      
 4.68000e-01       1.29191e-06       7.26490e-08       1.36428e-14       2.80565e-09       5.22876e-01       6.44279e-02       5.22876e-01      
 4.77000e-01       1.46464e-06       8.50415e-08       1.40578e-14       3.19525e-09       5.22876e-01       6.72827e-02       5.22876e-01      
 4.86000e-01       1.65389e-06       9.90621e-08       1.44597e-14       3.61952e-09       5.22876e-01       7.03177e-02       5.22876e-01      
 4.95000e-01       1.86072e-06       1.14864e-07       1.48473e-14       4.07989e-09       5.22876e-01       7.35323e-02       5.22876e-01      
 5.04000e-01       2.08618e-06       1.32611e-07       1.52195e-14       4.57786e-09       5.22876e-01       7.69263e-02       5.22876e-01      
 5.13000e-01       2.33121e-06       1.52474e-07       1.55756e-14       5.11496e-09       5.22876e-01       8.04996e-02       5.22876e-01      
 5.22000e-01       2.59665e-06       1.74634e-07       1.59150e-14       5.69274e-09       5.22876e-01       8.42518e-02       5.22876e-01      
 5.31000e-01       2.88317e-06       1.99277e-07       1.62376e-14       6.31275e-09       5.22876e-01       8.81823e-02       5.22876e-01      
 5.40000e-01       3.19123e-06       2.26596e-07       1.65432e-14       6.97650e-09       5.22876e-01       9.22899e-02       5.22876e-01      
 5.49000e-01       3.52112e-06       2.56785e-07       1.68321e-14       7.68545e-09       5.22876e-01       9.65731e-02       5.22876e-01      
 5.58000e-01       3.87289e-06       2.90042e-07       1.71045e-14       8.44102e-09       5.22876e-01       1.01030e-01       5.22876e-01      
 5.67000e-01       4.24638e-06       3.26562e-07       1.73608e-14       9.24454e-09       5.22876e-01       1.05657e-01       5.22876e-01      
 5.76000e-01       4.64121e-06       3.66540e-07       1.76016e-14       1.00972e-08       5.22876e-01       1.10451e-01       5.22876e-01      
 5.85000e-01       5.05680e-06       4.10166e-07       1.78275e-14       1.10003e-08       5.22876e-01       1.15408e-01       5.22876e-01      
 5.94000e-01       5.49240e-06       4.57623e-07       1.80391e-14       1.19548e-08       5.22876e-01       1.20523e-01       5.22876e-01      
 6.03000e-01       5.94710e-06       5.09087e-07       1.82371e-14       1.29617e-08       5.22876e-01       1.25791e-01       5.22876e-01      
 6.12000e-01       6.41985e-06       5.64725e-07       1.84222e-14       1.40220e-08       5.22876e-01       1.31206e-01       5.22876e-01      
 6.21000e-01       6.90949e-06       6.24695e-07       1.85952e-14       1.51364e-08       5.22876e-01       1.36762e-01       5.22876e-01      
 6.30000e-01       7.41481e-06       6.89143e-07       1.87568e-14       1.63059e-08       5.22876e-01       1.42453e-01       5.22876e-01      
 6.39000e-01       7.93453e-06       7.58204e-07       1.89078e-14       1.75311e-08       5.22876e-01       1.48272e-01       5.22876e-01      
 6.48000e-01       8.46737e-06       8.32004e-07       1.90487e-14       1.88128e-08       5.22876e-01       1.54213e-01       5.22876e-01      
 6.57000e-01       9.01203e-06       9.10653e-07       1.91802e-14       2.01517e-08       5.22876e-01       1.60269e-01       5.22876e-01      
 6.66000e-01       9.56725e-06       9.94252e-07       1.93031e-14       2.15487e-08       5.22876e-01       1.66433e-01       5.22876e-01      
 6.75000e-01       1.01318e-05       1.08289e-06       1.94179e-14       2.30043e-08       5.22876e-01       1.72699e-01       5.22876e-01      
 6.84000e-01       1.07045e-05       1.17665e-06       1.95253e-14       2.45195e-08       5.22876e-01       1.79061e-01       5.22876e-01      
 6.93000e-01       1.12842e-05       1.27559e-06       1.96257e-14       2.60951e-08       5.22876e-01       1.85512e-01       5.22876e-01      
 7.02000e-01       1.18699e-05       1.37978e-06       1.97197e-14       2.77320e-08       5.22876e-01       1.92047e-01       5.22876e-01      
 7.11000e-01       1.24606e-05       1.48927e-06       1.98077e-14       2.94310e-08       5.22876e-01       1.98660e-01       5.22876e-01      
 7.20000e-01       1.30554e-05       1.60409e-06       1.98903e-14       3.11934e-08       5.22876e-01       2.05345e-01       5.22876e-01      
 7.29000e-01       1.36535e-05       1.72427e-06       1.99678e-14       3.30203e-08       5.22876e-01       2.12099e-01       5.22876e-01      
 7.38000e-01       1.42542e-05       1.84986e-06       2.00406e-14       3.49129e-08       5.22876e-01       2.18915e-01       5.22876e-01      
 7.47000e-01       1.48567e-05       1.98085e-06       2.01091e-14       3.68725e-08       5.22876e-01       2.25790e-01       5.22876e-01      
 7.56000e-01       1.54605e-05       2.11728e-06       2.01736e-14       3.89007e-08       5.22876e-01       2.32720e-01       5.22876e-01      
 7.65000e-01       1.60649e-05       2.25914e-06       2.02345e-14       4.09991e-08       5.22876e-01       2.39700e-01       5.22876e-01      
 7.74000e-01       1.66696e-05       2.40645e-06       2.02920e-14       4.31695e-08       5.22876e-01       2.46727e-01       5.22876e-01      
 7.83000e-01       1.72741e-05       2.55920e-06       2.03463e-14       4.54137e-08       5.22876e-01       2.53799e-01       5.22876e-01      
 7.92000e-01       1.78780e-05       2.71738e-06       2.03978e-14       4.77339e-08       5.22876e-01       2.60911e-01       5.22876e-01      
 8.01000e-01       1.84809e-05       2.88100e-06       2.04466e-14       5.01323e-08       5.22876e-01       2.68061e-01       5.22876e-01      
 8.10000e-01       1.90826e-05       3.05004e-06       2.04929e-14       5.26112e-08       5.22876e-01       2.75247e-01       5.22876e-01      
 8.19000e-01       1.96828e-05       3.22448e-06       2.05369e-14       5.51734e-08       5.22876e-01       2.82467e-01       5.22876e-01      
 8.28000e-01       2.02812e-05       3.40432e-06       2.05789e-14       5.78215e-08       5.22876e-01       2.89717e-01       5.22876e-01      
 8.37000e-01       2.08776e-05       3.58954e-06       2.06189e-14       6.05588e-08       5.22876e-01       2.96996e-01       5.22876e-01      
 8.46000e-01       2.14720e-05       3.78011e-06       2.06571e-14       6.33883e-08       5.22876e-01       3.04303e-01       5.22876e-01      
 8.55000e-01       2.20639e-05       3.97602e-06       2.06936e-14       6.63135e-08       5.22876e-01       3.11636e-01       5.22876e-01      
 8.64000e-01       2.26534e-05       4.17725e-06       2.07286e-14       6.93384e-08       5.22876e-01       3.18993e-01       5.22876e-01      
 8.73000e-01       2.32403e-05       4.38378e-06       2.07621e-14       7.24667e-08       5.22876e-01       3.26374e-01       5.22876e-01      
 8.82000e-01       2.38245e-05       4.59557e-06       2.07943e-14       7.57030e-08       5.22876e-01       3.33776e-01       5.22876e-01      
 8.91000e-01       2.44058e-05       4.81261e-06       2.08253e-14       7.90518e-08       5.22876e-01       3.41199e-01       5.22876e-01      
 9.00000e-01       2.49842e-05       5.03487e-06       2.08551e-14       8.25180e-08       5.22876e-01       3.48642e-01       5.22876e-01      
 9.09000e-01       2.55595e-05       5.26232e-06       2.08838e-14       8.61071e-08       5.22876e-01       3.56103e-01       5.22876e-01      
 9.18000e-01       2.61316e-05       5.49493e-06       2.09115e-14       8.98248e-08       5.22876e-01       3.63583e-01       5.22876e-01      
 9.27000e-01       2.67006e-05       5.73268e-06       2.09384e-14       9.36771e-08       5.22876e-01       3.71081e-01       5.22876e-01      
 9.36000e-01       2.72661e-05       5.97553e-06       2.09643e-14       9.76708e-08       5.22876e-01       3.78595e-01       5.22876e-01      
 9.45000e-01       2.78283e-05       6.22346e-06       2.09894e-14       1.01813e-07       5.22876e-01       3.86126e-01       5.22876e-01      
 9.54000e-01       2.83870e-05       6.47643e-06       2.10138e-14       1.06111e-07       5.22876e-01       3.93672e-01       5.22876e-01      
 9.63000e-01       2.89420e-05       6.73441e-06       2.10375e-14       1.10574e-07       5.22876e-01       4.01233e-01       5.22876e-01      
 9.72000e-01       2.94935e-05       6.99737e-06       2.10606e-14       1.15209e-07       5.22876e-01       4.08810e-01       5.22876e-01      
 9.81000e-01       3.00412e-05       7.26528e-06       2.10830e-14       1.20028e-07       5.22876e-01       4.16401e-01       5.22876e-01      
 9.90000e-01       3.05850e-05       7.53810e-06       2.11048e-14       1.25039e-07       5.22876e-01       4.24006e-01       5.22876e-01      
 9.99000e-01       3.11250e-05       7.81580e-06       2.11262e-14       1.30255e-07       5.22876e-01       4.31625e-01       5.22876e-01      
 1.00800e+00       3.16610e-05       8.09834e-06       2.11470e-14       1.35686e-07       5.22876e-01       4.39258e-01       5.22876e-01      
 1.01700e+00       3.21929e-05       8.38569e-06       2.11675e-14       1.41347e-07       5.22876e-01       4.46904e-01       5.22876e-01      
 1.02600e+00       3.27206e-05       8.67780e-06       2.11874e-14       1.47251e-07       5.22876e-01       4.54564e-01       5.22876e-01      
 1.03500e+00       3.32442e-05       8.97465e-06       2.12070e-14       1.53413e-07       5.22876e-01       4.62236e-01       5.22876e-01      
 1.04400e+00       3.37634e-05       9.27618e-06       2.12263e-14       1.59851e-07       5.22876e-01       4.69922e-01       5.22876e-01      
 1.05300e+00       3.42782e-05       9.58237e-06       2.12452e-14       1.66581e-07       5.22876e-01       4.77621e-01       5.22876e-01      
 1.06200e+00       3.47885e-05       9.89318e-06       2.12638e-14       1.73624e-07       5.22876e-01       4.85332e-01       5.22876e-01      
 1.07100e+00       3.52942e-05       1.02086e-05       2.12822e-14       1.81001e-07       5.22876e-01       4.93056e-01       5.22876e-01      
 1.08000e+00       3.57952e-05       1.05285e-05       2.13003e-14       1.88734e-07       5.22876e-01       5.00793e-01       5.22876e-01      
 1.08900e+00       3.62915e-05       1.08529e-05       2.13182e-14       1.96851e-07       5.22876e-01       5.08542e-01       5.22876e-01      
 1.09800e+00       3.67829e-05       1.11817e-05       2.13359e-14       2.05377e-07       5.22876e-01       5.16304e-01       5.22876e-01      
 1.10700e+00       3.72694e-05       1.15149e-05       2.13534e-14       2.14343e-07       5.22876e-01       5.24078e-01       5.22876e-01      
 1.11600e+00       3.77508e-05       1.18525e-05       2.13707e-14       2.23783e-07       5.22876e-01       5.31865e-01       5.22876e-01      
 1.12500e+00       3.82270e-05       1.21944e-05       2.13880e-14       2.33732e-07       5.22876e-01       5.39664e-01       5.22876e-01      
 1.13400e+00       3.86980e-05       1.25406e-05       2.14052e-14       2.44232e-07       5.22876e-01       5.47476e-01       5.22876e-01      
 1.14300e+00       3.91635e-05       1.28910e-05       2.14222e-14       2.55325e-07       5.22876e-01       5.55301e-01       5.22876e-01      
 1.15200e+00       3.96237e-05       1.32455e-05       2.14393e-14       2.67060e-07       5.22876e-01       5.63138e-01       5.22876e-01      
 1.16100e+00       4.00782e-05       1.36042e-05       2.14563e-14       2.79491e-07       5.22876e-01       5.70987e-01       5.22876e-01      
 1.17000e+00       4.05270e-05       1.39669e-05       2.14733e-14       2.92676e-07       5.22876e-01       5.78849e-01       5.22876e-01      
 1.17900e+00       4.09699e-05       1.43337e-05       2.14903e-14       3.06680e-07       5.22876e-01       5.86724e-01       5.22876e-01      
 1.18800e+00       4.14069e-05       1.47044e-05       2.15073e-14       3.21576e-07       5.22876e-01       5.94611e-01       5.22876e-01      
 1.19700e+00       4.18378e-05       1.50790e-05       2.15245e-14       3.37444e-07       5.22876e-01       6.02511e-01       5.22876e-01      
 1.20600e+00       4.22624e-05       1.54574e-05       2.15417e-14       3.54371e-07       5.22876e-01       6.10424e-01       5.22876e-01      
 1.21500e+00       4.26806e-05       1.58397e-05       2.15591e-14       3.72457e-07       5.22876e-01       6.18350e-01       5.22876e-01      
