
dc (V)            getData("M0:gm    getData("M0:id    getData("M0:cg    getData("M0:gd    getData("M0:vt    getData("M0:vd    getData("M0:vt

 0.00000e+00       1.03160e-12       5.30545e-14       1.60040e-14       7.29105e-16       5.15782e-01       4.00353e-02       5.15782e-01      
 9.00000e-03       1.38362e-12       6.38456e-14       1.59303e-14       9.77988e-16       5.15782e-01       4.00353e-02       5.15782e-01      
 1.80000e-02       1.85568e-12       7.83187e-14       1.58592e-14       1.31179e-15       5.15782e-01       4.00354e-02       5.15782e-01      
 2.70000e-02       2.48866e-12       9.77292e-14       1.57905e-14       1.75947e-15       5.15782e-01       4.00354e-02       5.15782e-01      
 3.60000e-02       3.33737e-12       1.23760e-13       1.57245e-14       2.35983e-15       5.15782e-01       4.00354e-02       5.15782e-01      
 4.50000e-02       4.47519e-12       1.58667e-13       1.56612e-14       3.16490e-15       5.15782e-01       4.00355e-02       5.15782e-01      
 5.40000e-02       6.00046e-12       2.05473e-13       1.56008e-14       4.24441e-15       5.15782e-01       4.00356e-02       5.15782e-01      
 6.30000e-02       8.04483e-12       2.68228e-13       1.55435e-14       5.69177e-15       5.15782e-01       4.00357e-02       5.15782e-01      
 7.20000e-02       1.07845e-11       3.52360e-13       1.54894e-14       7.63213e-15       5.15782e-01       4.00358e-02       5.15782e-01      
 8.10000e-02       1.44554e-11       4.65135e-13       1.54390e-14       1.02331e-14       5.15782e-01       4.00360e-02       5.15782e-01      
 9.00000e-02       1.93727e-11       6.16285e-13       1.53927e-14       1.37191e-14       5.15782e-01       4.00362e-02       5.15782e-01      
 9.90000e-02       2.59582e-11       8.18834e-13       1.53508e-14       1.83905e-14       5.15782e-01       4.00366e-02       5.15782e-01      
 1.08000e-01       3.47751e-11       1.09021e-12       1.53140e-14       2.46491e-14       5.15782e-01       4.00370e-02       5.15782e-01      
 1.17000e-01       4.65751e-11       1.45371e-12       1.52832e-14       3.30322e-14       5.15782e-01       4.00376e-02       5.15782e-01      
 1.26000e-01       6.23610e-11       1.94048e-12       1.52591e-14       4.42581e-14       5.15782e-01       4.00384e-02       5.15782e-01      
 1.35000e-01       8.34687e-11       2.59213e-12       1.52429e-14       5.92858e-14       5.15782e-01       4.00394e-02       5.15782e-01      
 1.44000e-01       1.11676e-10       3.46416e-12       1.52359e-14       7.93951e-14       5.15782e-01       4.00408e-02       5.15782e-01      
 1.53000e-01       1.49344e-10       4.63060e-12       1.52396e-14       1.06292e-13       5.15782e-01       4.00427e-02       5.15782e-01      
 1.62000e-01       1.99593e-10       6.18998e-12       1.52553e-14       1.42248e-13       5.15782e-01       4.00452e-02       5.15782e-01      
 1.71000e-01       2.66568e-10       8.27332e-12       1.52859e-14       1.90280e-13       5.15782e-01       4.00485e-02       5.15782e-01      
 1.80000e-01       3.55736e-10       1.10546e-11       1.53341e-14       2.54396e-13       5.15782e-01       4.00530e-02       5.15782e-01      
 1.89000e-01       4.74292e-10       1.47645e-11       1.54030e-14       3.39906e-13       5.15782e-01       4.00589e-02       5.15782e-01      
 1.98000e-01       6.31676e-10       1.97081e-11       1.54959e-14       4.53826e-13       5.15782e-01       4.00668e-02       5.15782e-01      
 2.07000e-01       8.40223e-10       2.62878e-11       1.56170e-14       6.05407e-13       5.15782e-01       4.00774e-02       5.15782e-01      
 2.16000e-01       1.11598e-09       3.50332e-11       1.57704e-14       8.06804e-13       5.15782e-01       4.00914e-02       5.15782e-01      
 2.25000e-01       1.47969e-09       4.66387e-11       1.59611e-14       1.07393e-12       5.15782e-01       4.01099e-02       5.15782e-01      
 2.34000e-01       1.95806e-09       6.20109e-11       1.61941e-14       1.42753e-12       5.15782e-01       4.01345e-02       5.15782e-01      
 2.43000e-01       2.58514e-09       8.23290e-11       1.64749e-14       1.89448e-12       5.15782e-01       4.01669e-02       5.15782e-01      
 2.52000e-01       3.40404e-09       1.09118e-10       1.68088e-14       2.50943e-12       5.15782e-01       4.02095e-02       5.15782e-01      
 2.61000e-01       4.46882e-09       1.44338e-10       1.72014e-14       3.31672e-12       5.15782e-01       4.02655e-02       5.15782e-01      
 2.70000e-01       5.84653e-09       1.90494e-10       1.76577e-14       4.37260e-12       5.15782e-01       4.03385e-02       5.15782e-01      
 2.79000e-01       7.61928e-09       2.50759e-10       1.81826e-14       5.74773e-12       5.15782e-01       4.04335e-02       5.15782e-01      
 2.88000e-01       9.88633e-09       3.29122e-10       1.87801e-14       7.52997e-12       5.15782e-01       4.05564e-02       5.15782e-01      
 2.97000e-01       1.27658e-08       4.30548e-10       1.94532e-14       9.82707e-12       5.15782e-01       4.07144e-02       5.15782e-01      
 3.06000e-01       1.63959e-08       5.61156e-10       2.02043e-14       1.27693e-11       5.15782e-01       4.09161e-02       5.15782e-01      
 3.15000e-01       2.09354e-08       7.28400e-10       2.10342e-14       1.65118e-11       5.15782e-01       4.11716e-02       5.15782e-01      
 3.24000e-01       2.65634e-08       9.41257e-10       2.19426e-14       2.12355e-11       5.15782e-01       4.14924e-02       5.15782e-01      
 3.33000e-01       3.34772e-08       1.21040e-09       2.29279e-14       2.71474e-11       5.15782e-01       4.18914e-02       5.15782e-01      
 3.42000e-01       4.18896e-08       1.54834e-09       2.39869e-14       3.44795e-11       5.15782e-01       4.23823e-02       5.15782e-01      
 3.51000e-01       5.20245e-08       1.96958e-09       2.51153e-14       4.34851e-11       5.15782e-01       4.29796e-02       5.15782e-01      
 3.60000e-01       6.41118e-08       2.49064e-09       2.63076e-14       5.44340e-11       5.15782e-01       4.36978e-02       5.15782e-01      
 3.69000e-01       7.83813e-08       3.13014e-09       2.75569e-14       6.76066e-11       5.15782e-01       4.45506e-02       5.15782e-01      
 3.78000e-01       9.50578e-08       3.90873e-09       2.88556e-14       8.32867e-11       5.15782e-01       4.55507e-02       5.15782e-01      
 3.87000e-01       1.14357e-07       4.84905e-09       3.01951e-14       1.01754e-10       5.15782e-01       4.67089e-02       5.15782e-01      
 3.96000e-01       1.36485e-07       5.97564e-09       3.15665e-14       1.23281e-10       5.15782e-01       4.80339e-02       5.15782e-01      
 4.05000e-01       1.61640e-07       7.31486e-09       3.29604e-14       1.48126e-10       5.15782e-01       4.95319e-02       5.15782e-01      
 4.14000e-01       1.90022e-07       8.89484e-09       3.43672e-14       1.76532e-10       5.15782e-01       5.12072e-02       5.15782e-01      
 4.23000e-01       2.21834e-07       1.07455e-08       3.57775e-14       2.08733e-10       5.15782e-01       5.30620e-02       5.15782e-01      
 4.32000e-01       2.57303e-07       1.28988e-08       3.71824e-14       2.44951e-10       5.15782e-01       5.50972e-02       5.15782e-01      
 4.41000e-01       2.96676e-07       1.53887e-08       3.85733e-14       2.85404e-10       5.15782e-01       5.73127e-02       5.15782e-01      
 4.50000e-01       3.40233e-07       1.82515e-08       3.99423e-14       3.30311e-10       5.15782e-01       5.97077e-02       5.15782e-01      
 4.59000e-01       3.88284e-07       2.15264e-08       4.12823e-14       3.79895e-10       5.15782e-01       6.22815e-02       5.15782e-01      
 4.68000e-01       4.41164e-07       2.52551e-08       4.25872e-14       4.34388e-10       5.15782e-01       6.50335e-02       5.15782e-01      
 4.77000e-01       4.99224e-07       2.94829e-08       4.38517e-14       4.94033e-10       5.15782e-01       6.79632e-02       5.15782e-01      
 4.86000e-01       5.62819e-07       3.42578e-08       4.50714e-14       5.59083e-10       5.15782e-01       7.10703e-02       5.15782e-01      
 4.95000e-01       6.32293e-07       3.96312e-08       4.62431e-14       6.29800e-10       5.15782e-01       7.43549e-02       5.15782e-01      
 5.04000e-01       7.07968e-07       4.56577e-08       4.73643e-14       7.06454e-10       5.15782e-01       7.78170e-02       5.15782e-01      
 5.13000e-01       7.90127e-07       5.23941e-08       4.84332e-14       7.89318e-10       5.15782e-01       8.14563e-02       5.15782e-01      
 5.22000e-01       8.79007e-07       5.99001e-08       4.94490e-14       8.78665e-10       5.15782e-01       8.52726e-02       5.15782e-01      
 5.31000e-01       9.74783e-07       6.82369e-08       5.04115e-14       9.74765e-10       5.15782e-01       8.92651e-02       5.15782e-01      
 5.40000e-01       1.07757e-06       7.74672e-08       5.13211e-14       1.07788e-09       5.15782e-01       9.34324e-02       5.15782e-01      
 5.49000e-01       1.18741e-06       8.76543e-08       5.21786e-14       1.18826e-09       5.15782e-01       9.77726e-02       5.15782e-01      
 5.58000e-01       1.30427e-06       9.88617e-08       5.29853e-14       1.30616e-09       5.15782e-01       1.02283e-01       5.15782e-01      
 5.67000e-01       1.42807e-06       1.11152e-07       5.37430e-14       1.43178e-09       5.15782e-01       1.06961e-01       5.15782e-01      
 5.76000e-01       1.55863e-06       1.24587e-07       5.44533e-14       1.56535e-09       5.15782e-01       1.11802e-01       5.15782e-01      
 5.85000e-01       1.69574e-06       1.39227e-07       5.51185e-14       1.70706e-09       5.15782e-01       1.16802e-01       5.15782e-01      
 5.94000e-01       1.83912e-06       1.55129e-07       5.57407e-14       1.85710e-09       5.15782e-01       1.21955e-01       5.15782e-01      
 6.03000e-01       1.98845e-06       1.72349e-07       5.63221e-14       2.01562e-09       5.15782e-01       1.27257e-01       5.15782e-01      
 6.12000e-01       2.14339e-06       1.90938e-07       5.68652e-14       2.18279e-09       5.15782e-01       1.32701e-01       5.15782e-01      
 6.21000e-01       2.30355e-06       2.10946e-07       5.73721e-14       2.35875e-09       5.15782e-01       1.38281e-01       5.15782e-01      
 6.30000e-01       2.46853e-06       2.32417e-07       5.78451e-14       2.54364e-09       5.15782e-01       1.43991e-01       5.15782e-01      
 6.39000e-01       2.63793e-06       2.55393e-07       5.82865e-14       2.73759e-09       5.15782e-01       1.49824e-01       5.15782e-01      
 6.48000e-01       2.81135e-06       2.79911e-07       5.86984e-14       2.94073e-09       5.15782e-01       1.55775e-01       5.15782e-01      
 6.57000e-01       2.98837e-06       3.06008e-07       5.90829e-14       3.15320e-09       5.15782e-01       1.61835e-01       5.15782e-01      
 6.66000e-01       3.16860e-06       3.33712e-07       5.94418e-14       3.37512e-09       5.15782e-01       1.68000e-01       5.15782e-01      
 6.75000e-01       3.35168e-06       3.63051e-07       5.97771e-14       3.60665e-09       5.15782e-01       1.74262e-01       5.15782e-01      
 6.84000e-01       3.53724e-06       3.94049e-07       6.00905e-14       3.84792e-09       5.15782e-01       1.80616e-01       5.15782e-01      
 6.93000e-01       3.72496e-06       4.26728e-07       6.03836e-14       4.09910e-09       5.15782e-01       1.87056e-01       5.15782e-01      
 7.02000e-01       3.91450e-06       4.61104e-07       6.06579e-14       4.36036e-09       5.15782e-01       1.93577e-01       5.15782e-01      
 7.11000e-01       4.10560e-06       4.97194e-07       6.09150e-14       4.63189e-09       5.15782e-01       2.00173e-01       5.15782e-01      
 7.20000e-01       4.29798e-06       5.35009e-07       6.11560e-14       4.91389e-09       5.15782e-01       2.06838e-01       5.15782e-01      
 7.29000e-01       4.49140e-06       5.74560e-07       6.13824e-14       5.20659e-09       5.15782e-01       2.13570e-01       5.15782e-01      
 7.38000e-01       4.68564e-06       6.15856e-07       6.15951e-14       5.51024e-09       5.15782e-01       2.20362e-01       5.15782e-01      
 7.47000e-01       4.88050e-06       6.58904e-07       6.17953e-14       5.82510e-09       5.15782e-01       2.27212e-01       5.15782e-01      
 7.56000e-01       5.07582e-06       7.03707e-07       6.19839e-14       6.15148e-09       5.15782e-01       2.34115e-01       5.15782e-01      
 7.65000e-01       5.27142e-06       7.50269e-07       6.21619e-14       6.48970e-09       5.15782e-01       2.41068e-01       5.15782e-01      
 7.74000e-01       5.46717e-06       7.98593e-07       6.23300e-14       6.84011e-09       5.15782e-01       2.48067e-01       5.15782e-01      
 7.83000e-01       5.66295e-06       8.48678e-07       6.24891e-14       7.20309e-09       5.15782e-01       2.55110e-01       5.15782e-01      
 7.92000e-01       5.85864e-06       9.00526e-07       6.26397e-14       7.57908e-09       5.15782e-01       2.62194e-01       5.15782e-01      
 8.01000e-01       6.05414e-06       9.54133e-07       6.27827e-14       7.96852e-09       5.15782e-01       2.69316e-01       5.15782e-01      
 8.10000e-01       6.24936e-06       1.00950e-06       6.29185e-14       8.37191e-09       5.15782e-01       2.76474e-01       5.15782e-01      
 8.19000e-01       6.44423e-06       1.06662e-06       6.30477e-14       8.78980e-09       5.15782e-01       2.83665e-01       5.15782e-01      
 8.28000e-01       6.63868e-06       1.12549e-06       6.31708e-14       9.22275e-09       5.15782e-01       2.90889e-01       5.15782e-01      
 8.37000e-01       6.83265e-06       1.18612e-06       6.32883e-14       9.67140e-09       5.15782e-01       2.98143e-01       5.15782e-01      
 8.46000e-01       7.02608e-06       1.24848e-06       6.34006e-14       1.01364e-08       5.15782e-01       3.05426e-01       5.15782e-01      
 8.55000e-01       7.21891e-06       1.31258e-06       6.35080e-14       1.06186e-08       5.15782e-01       3.12736e-01       5.15782e-01      
 8.64000e-01       7.41111e-06       1.37842e-06       6.36110e-14       1.11186e-08       5.15782e-01       3.20071e-01       5.15782e-01      
 8.73000e-01       7.60264e-06       1.44598e-06       6.37097e-14       1.16375e-08       5.15782e-01       3.27432e-01       5.15782e-01      
 8.82000e-01       7.79344e-06       1.51526e-06       6.38047e-14       1.21760e-08       5.15782e-01       3.34816e-01       5.15782e-01      
 8.91000e-01       7.98350e-06       1.58626e-06       6.38960e-14       1.27353e-08       5.15782e-01       3.42223e-01       5.15782e-01      
 9.00000e-01       8.17277e-06       1.65896e-06       6.39840e-14       1.33164e-08       5.15782e-01       3.49651e-01       5.15782e-01      
 9.09000e-01       8.36122e-06       1.73337e-06       6.40690e-14       1.39204e-08       5.15782e-01       3.57101e-01       5.15782e-01      
 9.18000e-01       8.54882e-06       1.80946e-06       6.41510e-14       1.45487e-08       5.15782e-01       3.64570e-01       5.15782e-01      
 9.27000e-01       8.73554e-06       1.88724e-06       6.42304e-14       1.52026e-08       5.15782e-01       3.72060e-01       5.15782e-01      
 9.36000e-01       8.92136e-06       1.96670e-06       6.43072e-14       1.58836e-08       5.15782e-01       3.79568e-01       5.15782e-01      
 9.45000e-01       9.10624e-06       2.04783e-06       6.43818e-14       1.65934e-08       5.15782e-01       3.87095e-01       5.15782e-01      
 9.54000e-01       9.29015e-06       2.13061e-06       6.44542e-14       1.73337e-08       5.15782e-01       3.94640e-01       5.15782e-01      
 9.63000e-01       9.47307e-06       2.21505e-06       6.45245e-14       1.81063e-08       5.15782e-01       4.02203e-01       5.15782e-01      
 9.72000e-01       9.65498e-06       2.30112e-06       6.45930e-14       1.89134e-08       5.15782e-01       4.09783e-01       5.15782e-01      
 9.81000e-01       9.83584e-06       2.38883e-06       6.46597e-14       1.97573e-08       5.15782e-01       4.17380e-01       5.15782e-01      
 9.90000e-01       1.00156e-05       2.47816e-06       6.47248e-14       2.06402e-08       5.15782e-01       4.24994e-01       5.15782e-01      
 9.99000e-01       1.01943e-05       2.56911e-06       6.47884e-14       2.15651e-08       5.15782e-01       4.32624e-01       5.15782e-01      
 1.00800e+00       1.03718e-05       2.66166e-06       6.48505e-14       2.25347e-08       5.15782e-01       4.40271e-01       5.15782e-01      
 1.01700e+00       1.05482e-05       2.75580e-06       6.49114e-14       2.35521e-08       5.15782e-01       4.47934e-01       5.15782e-01      
 1.02600e+00       1.07234e-05       2.85152e-06       6.49710e-14       2.46210e-08       5.15782e-01       4.55612e-01       5.15782e-01      
 1.03500e+00       1.08974e-05       2.94882e-06       6.50295e-14       2.57451e-08       5.15782e-01       4.63306e-01       5.15782e-01      
 1.04400e+00       1.10702e-05       3.04767e-06       6.50869e-14       2.69286e-08       5.15782e-01       4.71016e-01       5.15782e-01      
 1.05300e+00       1.12416e-05       3.14808e-06       6.51434e-14       2.81760e-08       5.15782e-01       4.78741e-01       5.15782e-01      
 1.06200e+00       1.14118e-05       3.25002e-06       6.51990e-14       2.94923e-08       5.15782e-01       4.86482e-01       5.15782e-01      
 1.07100e+00       1.15806e-05       3.35348e-06       6.52538e-14       3.08831e-08       5.15782e-01       4.94238e-01       5.15782e-01      
 1.08000e+00       1.17480e-05       3.45846e-06       6.53079e-14       3.23545e-08       5.15782e-01       5.02009e-01       5.15782e-01      
 1.08900e+00       1.19141e-05       3.56494e-06       6.53613e-14       3.39130e-08       5.15782e-01       5.09796e-01       5.15782e-01      
 1.09800e+00       1.20787e-05       3.67291e-06       6.54141e-14       3.55663e-08       5.15782e-01       5.17597e-01       5.15782e-01      
 1.10700e+00       1.22418e-05       3.78236e-06       6.54664e-14       3.73223e-08       5.15782e-01       5.25414e-01       5.15782e-01      
 1.11600e+00       1.24035e-05       3.89326e-06       6.55182e-14       3.91901e-08       5.15782e-01       5.33245e-01       5.15782e-01      
 1.12500e+00       1.25636e-05       4.00561e-06       6.55696e-14       4.11799e-08       5.15782e-01       5.41092e-01       5.15782e-01      
 1.13400e+00       1.27221e-05       4.11940e-06       6.56207e-14       4.33026e-08       5.15782e-01       5.48954e-01       5.15782e-01      
 1.14300e+00       1.28790e-05       4.23461e-06       6.56715e-14       4.55706e-08       5.15782e-01       5.56831e-01       5.15782e-01      
 1.15200e+00       1.30343e-05       4.35122e-06       6.57222e-14       4.79977e-08       5.15782e-01       5.64723e-01       5.15782e-01      
 1.16100e+00       1.31879e-05       4.46922e-06       6.57727e-14       5.05991e-08       5.15782e-01       5.72630e-01       5.15782e-01      
 1.17000e+00       1.33398e-05       4.58860e-06       6.58231e-14       5.33920e-08       5.15782e-01       5.80552e-01       5.15782e-01      
 1.17900e+00       1.34899e-05       4.70933e-06       6.58735e-14       5.63954e-08       5.15782e-01       5.88489e-01       5.15782e-01      
 1.18800e+00       1.36382e-05       4.83141e-06       6.59240e-14       5.96306e-08       5.15782e-01       5.96442e-01       5.15782e-01      
 1.19700e+00       1.37847e-05       4.95481e-06       6.59746e-14       6.31215e-08       5.15782e-01       6.04409e-01       5.15782e-01      
 1.20600e+00       1.39293e-05       5.07953e-06       6.60254e-14       6.68948e-08       5.15782e-01       6.12392e-01       5.15782e-01      
 1.21500e+00       1.40719e-05       5.20553e-06       6.60765e-14       7.09806e-08       5.15782e-01       6.20390e-01       5.15782e-01      
