
dc (V)            getData("M0:gm    getData("M0:id    getData("M0:cg    getData("M0:gd    getData("M0:vt    getData("M0:vd    getData("M0:vt

 0.00000e+00       3.03055e-12       1.12442e-13       1.21928e-15       6.71727e-15       4.93970e-01       4.08588e-02       4.93970e-01      
 9.00000e-03       4.05672e-12       1.43235e-13       1.21468e-15       8.99282e-15       4.93970e-01       4.08588e-02       4.93970e-01      
 1.80000e-02       5.43006e-12       1.84851e-13       1.21026e-15       1.20388e-14       4.93970e-01       4.08589e-02       4.93970e-01      
 2.70000e-02       7.26789e-12       2.40909e-13       1.20604e-15       1.61158e-14       4.93970e-01       4.08589e-02       4.93970e-01      
 3.60000e-02       9.72703e-12       3.16256e-13       1.20201e-15       2.15725e-14       4.93970e-01       4.08590e-02       4.93970e-01      
 4.50000e-02       1.30172e-11       4.17377e-13       1.19821e-15       2.88751e-14       4.93970e-01       4.08591e-02       4.93970e-01      
 5.40000e-02       1.74185e-11       5.52947e-13       1.19465e-15       3.86473e-14       4.93970e-01       4.08592e-02       4.93970e-01      
 6.30000e-02       2.33052e-11       7.34569e-13       1.19135e-15       5.17228e-14       4.93970e-01       4.08593e-02       4.93970e-01      
 7.20000e-02       3.11774e-11       9.77754e-13       1.18836e-15       6.92161e-14       4.93970e-01       4.08596e-02       4.93970e-01      
 8.10000e-02       4.17022e-11       1.30323e-12       1.18570e-15       9.26162e-14       4.93970e-01       4.08599e-02       4.93970e-01      
 9.00000e-02       5.57699e-11       1.73870e-12       1.18342e-15       1.23912e-13       4.93970e-01       4.08602e-02       4.93970e-01      
 9.90000e-02       7.45673e-11       2.32115e-12       1.18159e-15       1.65761e-13       4.93970e-01       4.08607e-02       4.93970e-01      
 1.08000e-01       9.96756e-11       3.09992e-12       1.18027e-15       2.21705e-13       4.93970e-01       4.08614e-02       4.93970e-01      
 1.17000e-01       1.33200e-10       4.14088e-12       1.17956e-15       2.96475e-13       4.93970e-01       4.08624e-02       4.93970e-01      
 1.26000e-01       1.77931e-10       5.53178e-12       1.17952e-15       3.96369e-13       4.93970e-01       4.08636e-02       4.93970e-01      
 1.35000e-01       2.37580e-10       7.38943e-12       1.18028e-15       5.29771e-13       4.93970e-01       4.08652e-02       4.93970e-01      
 1.44000e-01       3.17072e-10       9.86927e-12       1.18202e-15       7.07837e-13       4.93970e-01       4.08674e-02       4.93970e-01      
 1.53000e-01       4.22920e-10       1.31779e-11       1.18491e-15       9.45390e-13       4.93970e-01       4.08703e-02       4.93970e-01      
 1.62000e-01       5.63730e-10       1.75897e-11       1.18915e-15       1.26210e-12       4.93970e-01       4.08742e-02       4.93970e-01      
 1.71000e-01       7.50843e-10       2.34681e-11       1.19498e-15       1.68401e-12       4.93970e-01       4.08794e-02       4.93970e-01      
 1.80000e-01       9.99164e-10       3.12941e-11       1.20264e-15       2.24558e-12       4.93970e-01       4.08863e-02       4.93970e-01      
 1.89000e-01       1.32822e-09       4.17027e-11       1.21244e-15       2.99224e-12       4.93970e-01       4.08954e-02       4.93970e-01      
 1.98000e-01       1.76348e-09       5.55306e-11       1.22469e-15       3.98377e-12       4.93970e-01       4.09076e-02       4.93970e-01      
 2.07000e-01       2.33807e-09       7.38767e-11       1.23975e-15       5.29856e-12       4.93970e-01       4.09237e-02       4.93970e-01      
 2.16000e-01       3.09478e-09       9.81800e-11       1.25797e-15       7.03904e-12       4.93970e-01       4.09451e-02       4.93970e-01      
 2.25000e-01       4.08862e-09       1.30318e-10       1.27974e-15       9.33840e-12       4.93970e-01       4.09733e-02       4.93970e-01      
 2.34000e-01       5.38980e-09       1.72729e-10       1.30545e-15       1.23690e-11       4.93970e-01       4.10104e-02       4.93970e-01      
 2.43000e-01       7.08724e-09       2.28565e-10       1.33544e-15       1.63524e-11       4.93970e-01       4.10593e-02       4.93970e-01      
 2.52000e-01       9.29256e-09       3.01878e-10       1.37008e-15       2.15713e-11       4.93970e-01       4.11232e-02       4.93970e-01      
 2.61000e-01       1.21444e-08       3.97843e-10       1.40967e-15       2.83838e-11       4.93970e-01       4.12067e-02       4.93970e-01      
 2.70000e-01       1.58132e-08       5.23024e-10       1.45445e-15       3.72381e-11       4.93970e-01       4.13151e-02       4.93970e-01      
 2.79000e-01       2.05055e-08       6.85676e-10       1.50462e-15       4.86893e-11       4.93970e-01       4.14552e-02       4.93970e-01      
 2.88000e-01       2.64684e-08       8.96096e-10       1.56027e-15       6.34151e-11       4.93970e-01       4.16352e-02       4.93970e-01      
 2.97000e-01       3.39926e-08       1.16700e-09       1.62144e-15       8.22303e-11       4.93970e-01       4.18650e-02       4.93970e-01      
 3.06000e-01       4.34146e-08       1.51393e-09       1.68805e-15       1.06096e-10       4.93970e-01       4.21560e-02       4.93970e-01      
 3.15000e-01       5.51164e-08       1.95565e-09       1.75994e-15       1.36125e-10       4.93970e-01       4.25216e-02       4.93970e-01      
 3.24000e-01       6.95225e-08       2.51457e-09       1.83685e-15       1.73569e-10       4.93970e-01       4.29765e-02       4.93970e-01      
 3.33000e-01       8.70942e-08       3.21710e-09       1.91844e-15       2.19805e-10       4.93970e-01       4.35368e-02       4.93970e-01      
 3.42000e-01       1.08320e-07       4.09392e-09       2.00428e-15       2.76299e-10       4.93970e-01       4.42192e-02       4.93970e-01      
 3.51000e-01       1.33701e-07       5.18018e-09       2.09388e-15       3.44558e-10       4.93970e-01       4.50408e-02       4.93970e-01      
 3.60000e-01       1.63736e-07       6.51554e-09       2.18667e-15       4.26075e-10       4.93970e-01       4.60178e-02       4.93970e-01      
 3.69000e-01       1.98907e-07       8.14410e-09       2.28203e-15       5.22265e-10       4.93970e-01       4.71652e-02       4.93970e-01      
 3.78000e-01       2.39655e-07       1.01141e-08       2.37934e-15       6.34407e-10       4.93970e-01       4.84955e-02       4.93970e-01      
 3.87000e-01       2.86378e-07       1.24776e-08       2.47794e-15       7.63595e-10       4.93970e-01       5.00189e-02       4.93970e-01      
 3.96000e-01       3.39424e-07       1.52900e-08       2.57715e-15       9.10710e-10       4.93970e-01       5.17423e-02       4.93970e-01      
 4.05000e-01       3.99097e-07       1.86096e-08       2.67636e-15       1.07642e-09       4.93970e-01       5.36699e-02       4.93970e-01      
 4.14000e-01       4.65676e-07       2.24974e-08       2.77492e-15       1.26117e-09       4.93970e-01       5.58032e-02       4.93970e-01      
 4.23000e-01       5.39432e-07       2.70166e-08       2.87228e-15       1.46525e-09       4.93970e-01       5.81413e-02       4.93970e-01      
 4.32000e-01       6.20652e-07       3.22333e-08       2.96790e-15       1.68881e-09       4.93970e-01       6.06821e-02       4.93970e-01      
 4.41000e-01       7.09655e-07       3.82159e-08       3.06132e-15       1.93192e-09       4.93970e-01       6.34223e-02       4.93970e-01      
 4.50000e-01       8.06798e-07       4.50362e-08       3.15213e-15       2.19460e-09       4.93970e-01       6.63582e-02       4.93970e-01      
 4.59000e-01       9.12471e-07       5.27691e-08       3.23999e-15       2.47687e-09       4.93970e-01       6.94861e-02       4.93970e-01      
 4.68000e-01       1.02709e-06       6.14933e-08       3.32462e-15       2.77875e-09       4.93970e-01       7.28024e-02       4.93970e-01      
 4.77000e-01       1.15108e-06       7.12911e-08       3.40582e-15       3.10029e-09       4.93970e-01       7.63040e-02       4.93970e-01      
 4.86000e-01       1.28483e-06       8.22488e-08       3.48343e-15       3.44158e-09       4.93970e-01       7.99879e-02       4.93970e-01      
 4.95000e-01       1.42870e-06       9.44558e-08       3.55736e-15       3.80269e-09       4.93970e-01       8.38514e-02       4.93970e-01      
 5.04000e-01       1.58298e-06       1.08005e-07       3.62756e-15       4.18372e-09       4.93970e-01       8.78920e-02       4.93970e-01      
 5.13000e-01       1.74788e-06       1.22990e-07       3.69403e-15       4.58478e-09       4.93970e-01       9.21068e-02       4.93970e-01      
 5.22000e-01       1.92350e-06       1.39508e-07       3.75681e-15       5.00595e-09       4.93970e-01       9.64932e-02       4.93970e-01      
 5.31000e-01       2.10985e-06       1.57655e-07       3.81598e-15       5.44726e-09       4.93970e-01       1.01048e-01       4.93970e-01      
 5.40000e-01       2.30681e-06       1.77527e-07       3.87162e-15       5.90874e-09       4.93970e-01       1.05767e-01       4.93970e-01      
 5.49000e-01       2.51419e-06       1.99219e-07       3.92386e-15       6.39036e-09       4.93970e-01       1.10647e-01       4.93970e-01      
 5.58000e-01       2.73167e-06       2.22824e-07       3.97283e-15       6.89203e-09       4.93970e-01       1.15684e-01       4.93970e-01      
 5.67000e-01       2.95886e-06       2.48430e-07       4.01869e-15       7.41365e-09       4.93970e-01       1.20872e-01       4.93970e-01      
 5.76000e-01       3.19526e-06       2.76123e-07       4.06157e-15       7.95503e-09       4.93970e-01       1.26207e-01       4.93970e-01      
 5.85000e-01       3.44035e-06       3.05983e-07       4.10165e-15       8.51597e-09       4.93970e-01       1.31682e-01       4.93970e-01      
 5.94000e-01       3.69353e-06       3.38085e-07       4.13909e-15       9.09621e-09       4.93970e-01       1.37292e-01       4.93970e-01      
 6.03000e-01       3.95418e-06       3.72501e-07       4.17403e-15       9.69546e-09       4.93970e-01       1.43030e-01       4.93970e-01      
 6.12000e-01       4.22165e-06       4.09294e-07       4.20665e-15       1.03134e-08       4.93970e-01       1.48891e-01       4.93970e-01      
 6.21000e-01       4.49529e-06       4.48522e-07       4.23709e-15       1.09497e-08       4.93970e-01       1.54868e-01       4.93970e-01      
 6.30000e-01       4.77445e-06       4.90238e-07       4.26549e-15       1.16041e-08       4.93970e-01       1.60955e-01       4.93970e-01      
 6.39000e-01       5.05850e-06       5.34489e-07       4.29201e-15       1.22761e-08       4.93970e-01       1.67145e-01       4.93970e-01      
 6.48000e-01       5.34682e-06       5.81317e-07       4.31677e-15       1.29654e-08       4.93970e-01       1.73432e-01       4.93970e-01      
 6.57000e-01       5.63883e-06       6.30756e-07       4.33990e-15       1.36716e-08       4.93970e-01       1.79811e-01       4.93970e-01      
 6.66000e-01       5.93396e-06       6.82837e-07       4.36152e-15       1.43944e-08       4.93970e-01       1.86275e-01       4.93970e-01      
 6.75000e-01       6.23172e-06       7.37587e-07       4.38174e-15       1.51334e-08       4.93970e-01       1.92820e-01       4.93970e-01      
 6.84000e-01       6.53160e-06       7.95026e-07       4.40067e-15       1.58883e-08       4.93970e-01       1.99439e-01       4.93970e-01      
 6.93000e-01       6.83319e-06       8.55171e-07       4.41840e-15       1.66587e-08       4.93970e-01       2.06127e-01       4.93970e-01      
 7.02000e-01       7.13606e-06       9.18037e-07       4.43503e-15       1.74444e-08       4.93970e-01       2.12881e-01       4.93970e-01      
 7.11000e-01       7.43986e-06       9.83633e-07       4.45064e-15       1.82451e-08       4.93970e-01       2.19695e-01       4.93970e-01      
 7.20000e-01       7.74427e-06       1.05197e-06       4.46531e-15       1.90604e-08       4.93970e-01       2.26565e-01       4.93970e-01      
 7.29000e-01       8.04897e-06       1.12304e-06       4.47911e-15       1.98901e-08       4.93970e-01       2.33488e-01       4.93970e-01      
 7.38000e-01       8.35371e-06       1.19686e-06       4.49211e-15       2.07341e-08       4.93970e-01       2.40459e-01       4.93970e-01      
 7.47000e-01       8.65826e-06       1.27341e-06       4.50437e-15       2.15920e-08       4.93970e-01       2.47475e-01       4.93970e-01      
 7.56000e-01       8.96241e-06       1.35271e-06       4.51595e-15       2.24638e-08       4.93970e-01       2.54534e-01       4.93970e-01      
 7.65000e-01       9.26598e-06       1.43474e-06       4.52689e-15       2.33492e-08       4.93970e-01       2.61633e-01       4.93970e-01      
 7.74000e-01       9.56879e-06       1.51950e-06       4.53725e-15       2.42480e-08       4.93970e-01       2.68768e-01       4.93970e-01      
 7.83000e-01       9.87072e-06       1.60698e-06       4.54707e-15       2.51602e-08       4.93970e-01       2.75937e-01       4.93970e-01      
 7.92000e-01       1.01716e-05       1.69717e-06       4.55640e-15       2.60857e-08       4.93970e-01       2.83139e-01       4.93970e-01      
 8.01000e-01       1.04714e-05       1.79007e-06       4.56526e-15       2.70242e-08       4.93970e-01       2.90370e-01       4.93970e-01      
 8.10000e-01       1.07700e-05       1.88566e-06       4.57369e-15       2.79759e-08       4.93970e-01       2.97631e-01       4.93970e-01      
 8.19000e-01       1.10673e-05       1.98393e-06       4.58173e-15       2.89405e-08       4.93970e-01       3.04917e-01       4.93970e-01      
 8.28000e-01       1.13632e-05       2.08487e-06       4.58940e-15       2.99180e-08       4.93970e-01       3.12229e-01       4.93970e-01      
 8.37000e-01       1.16576e-05       2.18846e-06       4.59673e-15       3.09085e-08       4.93970e-01       3.19565e-01       4.93970e-01      
 8.46000e-01       1.19506e-05       2.29470e-06       4.60375e-15       3.19119e-08       4.93970e-01       3.26923e-01       4.93970e-01      
 8.55000e-01       1.22420e-05       2.40357e-06       4.61046e-15       3.29282e-08       4.93970e-01       3.34302e-01       4.93970e-01      
 8.64000e-01       1.25318e-05       2.51505e-06       4.61691e-15       3.39573e-08       4.93970e-01       3.41702e-01       4.93970e-01      
 8.73000e-01       1.28199e-05       2.62913e-06       4.62310e-15       3.49994e-08       4.93970e-01       3.49122e-01       4.93970e-01      
 8.82000e-01       1.31064e-05       2.74580e-06       4.62904e-15       3.60545e-08       4.93970e-01       3.56560e-01       4.93970e-01      
 8.91000e-01       1.33911e-05       2.86504e-06       4.63477e-15       3.71226e-08       4.93970e-01       3.64016e-01       4.93970e-01      
 9.00000e-01       1.36741e-05       2.98683e-06       4.64029e-15       3.82038e-08       4.93970e-01       3.71489e-01       4.93970e-01      
 9.09000e-01       1.39553e-05       3.11116e-06       4.64561e-15       3.92981e-08       4.93970e-01       3.78979e-01       4.93970e-01      
 9.18000e-01       1.42347e-05       3.23801e-06       4.65075e-15       4.04056e-08       4.93970e-01       3.86485e-01       4.93970e-01      
 9.27000e-01       1.45122e-05       3.36737e-06       4.65572e-15       4.15265e-08       4.93970e-01       3.94006e-01       4.93970e-01      
 9.36000e-01       1.47879e-05       3.49922e-06       4.66053e-15       4.26608e-08       4.93970e-01       4.01543e-01       4.93970e-01      
 9.45000e-01       1.50616e-05       3.63354e-06       4.66518e-15       4.38086e-08       4.93970e-01       4.09095e-01       4.93970e-01      
 9.54000e-01       1.53334e-05       3.77032e-06       4.66970e-15       4.49701e-08       4.93970e-01       4.16661e-01       4.93970e-01      
 9.63000e-01       1.56032e-05       3.90953e-06       4.67407e-15       4.61453e-08       4.93970e-01       4.24242e-01       4.93970e-01      
 9.72000e-01       1.58711e-05       4.05116e-06       4.67833e-15       4.73345e-08       4.93970e-01       4.31836e-01       4.93970e-01      
 9.81000e-01       1.61370e-05       4.19520e-06       4.68246e-15       4.85377e-08       4.93970e-01       4.39445e-01       4.93970e-01      
 9.90000e-01       1.64008e-05       4.34161e-06       4.68648e-15       4.97552e-08       4.93970e-01       4.47067e-01       4.93970e-01      
 9.99000e-01       1.66625e-05       4.49040e-06       4.69039e-15       5.09871e-08       4.93970e-01       4.54703e-01       4.93970e-01      
 1.00800e+00       1.69222e-05       4.64152e-06       4.69420e-15       5.22336e-08       4.93970e-01       4.62352e-01       4.93970e-01      
 1.01700e+00       1.71797e-05       4.79498e-06       4.69791e-15       5.34949e-08       4.93970e-01       4.70014e-01       4.93970e-01      
 1.02600e+00       1.74351e-05       4.95074e-06       4.70153e-15       5.47711e-08       4.93970e-01       4.77689e-01       4.93970e-01      
 1.03500e+00       1.76883e-05       5.10880e-06       4.70506e-15       5.60625e-08       4.93970e-01       4.85378e-01       4.93970e-01      
 1.04400e+00       1.79394e-05       5.26912e-06       4.70851e-15       5.73693e-08       4.93970e-01       4.93080e-01       4.93970e-01      
 1.05300e+00       1.81882e-05       5.43169e-06       4.71188e-15       5.86917e-08       4.93970e-01       5.00794e-01       4.93970e-01      
 1.06200e+00       1.84348e-05       5.59649e-06       4.71518e-15       6.00300e-08       4.93970e-01       5.08522e-01       4.93970e-01      
 1.07100e+00       1.86791e-05       5.76350e-06       4.71840e-15       6.13843e-08       4.93970e-01       5.16263e-01       4.93970e-01      
 1.08000e+00       1.89211e-05       5.93270e-06       4.72155e-15       6.27551e-08       4.93970e-01       5.24017e-01       4.93970e-01      
 1.08900e+00       1.91609e-05       6.10407e-06       4.72464e-15       6.41424e-08       4.93970e-01       5.31784e-01       4.93970e-01      
 1.09800e+00       1.93982e-05       6.27758e-06       4.72766e-15       6.55467e-08       4.93970e-01       5.39563e-01       4.93970e-01      
 1.10700e+00       1.96333e-05       6.45322e-06       4.73063e-15       6.69681e-08       4.93970e-01       5.47356e-01       4.93970e-01      
 1.11600e+00       1.98659e-05       6.63096e-06       4.73353e-15       6.84071e-08       4.93970e-01       5.55163e-01       4.93970e-01      
 1.12500e+00       2.00962e-05       6.81079e-06       4.73638e-15       6.98639e-08       4.93970e-01       5.62982e-01       4.93970e-01      
 1.13400e+00       2.03240e-05       6.99268e-06       4.73917e-15       7.13388e-08       4.93970e-01       5.70815e-01       4.93970e-01      
 1.14300e+00       2.05494e-05       7.17660e-06       4.74191e-15       7.28321e-08       4.93970e-01       5.78661e-01       4.93970e-01      
 1.15200e+00       2.07723e-05       7.36255e-06       4.74461e-15       7.43443e-08       4.93970e-01       5.86520e-01       4.93970e-01      
 1.16100e+00       2.09927e-05       7.55049e-06       4.74725e-15       7.58757e-08       4.93970e-01       5.94393e-01       4.93970e-01      
 1.17000e+00       2.12106e-05       7.74040e-06       4.74985e-15       7.74266e-08       4.93970e-01       6.02279e-01       4.93970e-01      
 1.17900e+00       2.14261e-05       7.93227e-06       4.75240e-15       7.89975e-08       4.93970e-01       6.10180e-01       4.93970e-01      
 1.18800e+00       2.16389e-05       8.12606e-06       4.75491e-15       8.05888e-08       4.93970e-01       6.18093e-01       4.93970e-01      
 1.19700e+00       2.18493e-05       8.32175e-06       4.75738e-15       8.22008e-08       4.93970e-01       6.26021e-01       4.93970e-01      
 1.20600e+00       2.20570e-05       8.51933e-06       4.75981e-15       8.38341e-08       4.93970e-01       6.33963e-01       4.93970e-01      
 1.21500e+00       2.22622e-05       8.71876e-06       4.76220e-15       8.54891e-08       4.93970e-01       6.41918e-01       4.93970e-01      
