
dc (V)            getData("M0:gm    getData("M0:id    getData("M0:cg    getData("M0:gd    getData("M0:vt    getData("M0:vd    getData("M0:vt

 0.00000e+00       1.62755e-12       7.13947e-14       9.90958e-15       1.58532e-15       5.18077e-01       4.02846e-02       5.18077e-01      
 9.00000e-03       2.18194e-12       8.84158e-14       9.86478e-15       2.12551e-15       5.18077e-01       4.02847e-02       5.18077e-01      
 1.80000e-02       2.92503e-12       1.11234e-13       9.82147e-15       2.84968e-15       5.18077e-01       4.02847e-02       5.18077e-01      
 2.70000e-02       3.92101e-12       1.41823e-13       9.77969e-15       3.82045e-15       5.18077e-01       4.02847e-02       5.18077e-01      
 3.60000e-02       5.25582e-12       1.82826e-13       9.73946e-15       5.12173e-15       5.18077e-01       4.02848e-02       5.18077e-01      
 4.50000e-02       7.04456e-12       2.37785e-13       9.70087e-15       6.86594e-15       5.18077e-01       4.02848e-02       5.18077e-01      
 5.40000e-02       9.44134e-12       3.11447e-13       9.66399e-15       9.20366e-15       5.18077e-01       4.02849e-02       5.18077e-01      
 6.30000e-02       1.26524e-11       4.10166e-13       9.62894e-15       1.23366e-14       5.18077e-01       4.02850e-02       5.18077e-01      
 7.20000e-02       1.69538e-11       5.42452e-13       9.59586e-15       1.65348e-14       5.18077e-01       4.02851e-02       5.18077e-01      
 8.10000e-02       2.27147e-11       7.19700e-13       9.56492e-15       2.21599e-14       5.18077e-01       4.02853e-02       5.18077e-01      
 9.00000e-02       3.04286e-11       9.57159e-13       9.53637e-15       2.96958e-14       5.18077e-01       4.02855e-02       5.18077e-01      
 9.90000e-02       4.07553e-11       1.27523e-12       9.51049e-15       3.97900e-14       5.18077e-01       4.02858e-02       5.18077e-01      
 1.08000e-01       5.45754e-11       1.70121e-12       9.48762e-15       5.33082e-14       5.18077e-01       4.02862e-02       5.18077e-01      
 1.17000e-01       7.30645e-11       2.27156e-12       9.46821e-15       7.14081e-14       5.18077e-01       4.02868e-02       5.18077e-01      
 1.26000e-01       9.77899e-11       3.03502e-12       9.45278e-15       9.56358e-14       5.18077e-01       4.02875e-02       5.18077e-01      
 1.35000e-01       1.30839e-10       4.05668e-12       9.44197e-15       1.28056e-13       5.18077e-01       4.02885e-02       5.18077e-01      
 1.44000e-01       1.74991e-10       5.42335e-12       9.43657e-15       1.71423e-13       5.18077e-01       4.02898e-02       5.18077e-01      
 1.53000e-01       2.33933e-10       7.25077e-12       9.43750e-15       2.29408e-13       5.18077e-01       4.02916e-02       5.18077e-01      
 1.62000e-01       3.12540e-10       9.69297e-12       9.44535e-15       3.06895e-13       5.18077e-01       4.02940e-02       5.18077e-01      
 1.71000e-01       4.17290e-10       1.29547e-11       9.46197e-15       4.10377e-13       5.18077e-01       4.02971e-02       5.18077e-01      
 1.80000e-01       5.56722e-10       1.73080e-11       9.48889e-15       5.48472e-13       5.18077e-01       4.03014e-02       5.18077e-01      
 1.89000e-01       7.42084e-10       2.31132e-11       9.52792e-15       7.32599e-13       5.18077e-01       4.03070e-02       5.18077e-01      
 1.98000e-01       9.88132e-10       3.08471e-11       9.58110e-15       9.77851e-13       5.18077e-01       4.03145e-02       5.18077e-01      
 2.07000e-01       1.31416e-09       4.11389e-11       9.65075e-15       1.30413e-12       5.18077e-01       4.03244e-02       5.18077e-01      
 2.16000e-01       1.74529e-09       5.48166e-11       9.73947e-15       1.73760e-12       5.18077e-01       4.03376e-02       5.18077e-01      
 2.25000e-01       2.31403e-09       7.29660e-11       9.85011e-15       2.31252e-12       5.18077e-01       4.03552e-02       5.18077e-01      
 2.34000e-01       3.06223e-09       9.70063e-11       9.98573e-15       3.07358e-12       5.18077e-01       4.03784e-02       5.18077e-01      
 2.43000e-01       4.04341e-09       1.28784e-10       1.01496e-14       4.07877e-12       5.18077e-01       4.04090e-02       5.18077e-01      
 2.52000e-01       5.32537e-09       1.70688e-10       1.03449e-14       5.40288e-12       5.18077e-01       4.04494e-02       5.18077e-01      
 2.61000e-01       6.99332e-09       2.25796e-10       1.05751e-14       7.14176e-12       5.18077e-01       4.05023e-02       5.18077e-01      
 2.70000e-01       9.15319e-09       2.98041e-10       1.08433e-14       9.41724e-12       5.18077e-01       4.05715e-02       5.18077e-01      
 2.79000e-01       1.19351e-08       3.92417e-10       1.11524e-14       1.23827e-11       5.18077e-01       4.06615e-02       5.18077e-01      
 2.88000e-01       1.54967e-08       5.15209e-10       1.15050e-14       1.62293e-11       5.18077e-01       4.07780e-02       5.18077e-01      
 2.97000e-01       2.00263e-08       6.74258e-10       1.19031e-14       2.11922e-11       5.18077e-01       4.09280e-02       5.18077e-01      
 3.06000e-01       2.57453e-08       8.79248e-10       1.23482e-14       2.75567e-11       5.18077e-01       4.11198e-02       5.18077e-01      
 3.15000e-01       3.29089e-08       1.14200e-09       1.28411e-14       3.56636e-11       5.18077e-01       4.13630e-02       5.18077e-01      
 3.24000e-01       4.18063e-08       1.47681e-09       1.33817e-14       4.59128e-11       5.18077e-01       4.16691e-02       5.18077e-01      
 3.33000e-01       5.27576e-08       1.90068e-09       1.39693e-14       5.87641e-11       5.18077e-01       4.20505e-02       5.18077e-01      
 3.42000e-01       6.61103e-08       2.43365e-09       1.46021e-14       7.47347e-11       5.18077e-01       4.25209e-02       5.18077e-01      
 3.51000e-01       8.22319e-08       3.09897e-09       1.52777e-14       9.43937e-11       5.18077e-01       4.30948e-02       5.18077e-01      
 3.60000e-01       1.01502e-07       3.92326e-09       1.59929e-14       1.18351e-10       5.18077e-01       4.37867e-02       5.18077e-01      
 3.69000e-01       1.24301e-07       4.93659e-09       1.67438e-14       1.47242e-10       5.18077e-01       4.46106e-02       5.18077e-01      
 3.78000e-01       1.51005e-07       6.17239e-09       1.75258e-14       1.81717e-10       5.18077e-01       4.55798e-02       5.18077e-01      
 3.87000e-01       1.81973e-07       7.66746e-09       1.83340e-14       2.22418e-10       5.18077e-01       4.67053e-02       5.18077e-01      
 3.96000e-01       2.17550e-07       9.46174e-09       1.91629e-14       2.69969e-10       5.18077e-01       4.79967e-02       5.18077e-01      
 4.05000e-01       2.58065e-07       1.15982e-08       2.00068e-14       3.24964e-10       5.18077e-01       4.94607e-02       5.18077e-01      
 4.14000e-01       3.03842e-07       1.41227e-08       2.08601e-14       3.87962e-10       5.18077e-01       5.11022e-02       5.18077e-01      
 4.23000e-01       3.55213e-07       1.70841e-08       2.17170e-14       4.59489e-10       5.18077e-01       5.29238e-02       5.18077e-01      
 4.32000e-01       4.12536e-07       2.05344e-08       2.25719e-14       5.40045e-10       5.18077e-01       5.49267e-02       5.18077e-01      
 4.41000e-01       4.76206e-07       2.45288e-08       2.34197e-14       6.30110e-10       5.18077e-01       5.71109e-02       5.18077e-01      
 4.50000e-01       5.46668e-07       2.91265e-08       2.42554e-14       7.30160e-10       5.18077e-01       5.94758e-02       5.18077e-01      
 4.59000e-01       6.24414e-07       3.43907e-08       2.50746e-14       8.40676e-10       5.18077e-01       6.20205e-02       5.18077e-01      
 4.68000e-01       7.09983e-07       4.03894e-08       2.58734e-14       9.62152e-10       5.18077e-01       6.47442e-02       5.18077e-01      
 4.77000e-01       8.03943e-07       4.71955e-08       2.66486e-14       1.09510e-09       5.18077e-01       6.76465e-02       5.18077e-01      
 4.86000e-01       9.06874e-07       5.48873e-08       2.73972e-14       1.24006e-09       5.18077e-01       7.07269e-02       5.18077e-01      
 4.95000e-01       1.01935e-06       6.35479e-08       2.81172e-14       1.39758e-09       5.18077e-01       7.39853e-02       5.18077e-01      
 5.04000e-01       1.14189e-06       7.32657e-08       2.88069e-14       1.56824e-09       5.18077e-01       7.74217e-02       5.18077e-01      
 5.13000e-01       1.27500e-06       8.41337e-08       2.94652e-14       1.75260e-09       5.18077e-01       8.10359e-02       5.18077e-01      
 5.22000e-01       1.41906e-06       9.62486e-08       3.00914e-14       1.95126e-09       5.18077e-01       8.48275e-02       5.18077e-01      
 5.31000e-01       1.57440e-06       1.09711e-07       3.06852e-14       2.16479e-09       5.18077e-01       8.87959e-02       5.18077e-01      
 5.40000e-01       1.74121e-06       1.24622e-07       3.12468e-14       2.39374e-09       5.18077e-01       9.29397e-02       5.18077e-01      
 5.49000e-01       1.91960e-06       1.41087e-07       3.17767e-14       2.63865e-09       5.18077e-01       9.72573e-02       5.18077e-01      
 5.58000e-01       2.10954e-06       1.59210e-07       3.22755e-14       2.90003e-09       5.18077e-01       1.01746e-01       5.18077e-01      
 5.67000e-01       2.31090e-06       1.79093e-07       3.27443e-14       3.17836e-09       5.18077e-01       1.06403e-01       5.18077e-01      
 5.76000e-01       2.52343e-06       2.00839e-07       3.31841e-14       3.47410e-09       5.18077e-01       1.11224e-01       5.18077e-01      
 5.85000e-01       2.74679e-06       2.24547e-07       3.35961e-14       3.78766e-09       5.18077e-01       1.16206e-01       5.18077e-01      
 5.94000e-01       2.98054e-06       2.50313e-07       3.39816e-14       4.11942e-09       5.18077e-01       1.21342e-01       5.18077e-01      
 6.03000e-01       3.22417e-06       2.78227e-07       3.43421e-14       4.46973e-09       5.18077e-01       1.26628e-01       5.18077e-01      
 6.12000e-01       3.47711e-06       3.08376e-07       3.46788e-14       4.83894e-09       5.18077e-01       1.32058e-01       5.18077e-01      
 6.21000e-01       3.73873e-06       3.40841e-07       3.49932e-14       5.22733e-09       5.18077e-01       1.37625e-01       5.18077e-01      
 6.30000e-01       4.00839e-06       3.75697e-07       3.52867e-14       5.63521e-09       5.18077e-01       1.43324e-01       5.18077e-01      
 6.39000e-01       4.28542e-06       4.13014e-07       3.55606e-14       6.06284e-09       5.18077e-01       1.49148e-01       5.18077e-01      
 6.48000e-01       4.56914e-06       4.52855e-07       3.58163e-14       6.51050e-09       5.18077e-01       1.55089e-01       5.18077e-01      
 6.57000e-01       4.85887e-06       4.95276e-07       3.60549e-14       6.97845e-09       5.18077e-01       1.61143e-01       5.18077e-01      
 6.66000e-01       5.15398e-06       5.40331e-07       3.62777e-14       7.46698e-09       5.18077e-01       1.67302e-01       5.18077e-01      
 6.75000e-01       5.45384e-06       5.88062e-07       3.64859e-14       7.97636e-09       5.18077e-01       1.73560e-01       5.18077e-01      
 6.84000e-01       5.75783e-06       6.38512e-07       3.66804e-14       8.50690e-09       5.18077e-01       1.79911e-01       5.18077e-01      
 6.93000e-01       6.06541e-06       6.91714e-07       3.68624e-14       9.05892e-09       5.18077e-01       1.86348e-01       5.18077e-01      
 7.02000e-01       6.37604e-06       7.47699e-07       3.70327e-14       9.63276e-09       5.18077e-01       1.92867e-01       5.18077e-01      
 7.11000e-01       6.68924e-06       8.06491e-07       3.71923e-14       1.02288e-08       5.18077e-01       1.99462e-01       5.18077e-01      
 7.20000e-01       7.00455e-06       8.68111e-07       3.73419e-14       1.08474e-08       5.18077e-01       2.06128e-01       5.18077e-01      
 7.29000e-01       7.32158e-06       9.32578e-07       3.74824e-14       1.14891e-08       5.18077e-01       2.12860e-01       5.18077e-01      
 7.38000e-01       7.63994e-06       9.99904e-07       3.76144e-14       1.21544e-08       5.18077e-01       2.19654e-01       5.18077e-01      
 7.47000e-01       7.95932e-06       1.07010e-06       3.77386e-14       1.28437e-08       5.18077e-01       2.26505e-01       5.18077e-01      
 7.56000e-01       8.27939e-06       1.14317e-06       3.78557e-14       1.35578e-08       5.18077e-01       2.33410e-01       5.18077e-01      
 7.65000e-01       8.59991e-06       1.21913e-06       3.79661e-14       1.42971e-08       5.18077e-01       2.40365e-01       5.18077e-01      
 7.74000e-01       8.92062e-06       1.29797e-06       3.80703e-14       1.50624e-08       5.18077e-01       2.47367e-01       5.18077e-01      
 7.83000e-01       9.24131e-06       1.37970e-06       3.81690e-14       1.58545e-08       5.18077e-01       2.54412e-01       5.18077e-01      
 7.92000e-01       9.56180e-06       1.46432e-06       3.82624e-14       1.66742e-08       5.18077e-01       2.61498e-01       5.18077e-01      
 8.01000e-01       9.88191e-06       1.55181e-06       3.83510e-14       1.75223e-08       5.18077e-01       2.68622e-01       5.18077e-01      
 8.10000e-01       1.02015e-05       1.64219e-06       3.84352e-14       1.84000e-08       5.18077e-01       2.75781e-01       5.18077e-01      
 8.19000e-01       1.05204e-05       1.73544e-06       3.85153e-14       1.93081e-08       5.18077e-01       2.82975e-01       5.18077e-01      
 8.28000e-01       1.08386e-05       1.83155e-06       3.85916e-14       2.02478e-08       5.18077e-01       2.90200e-01       5.18077e-01      
 8.37000e-01       1.11559e-05       1.93053e-06       3.86643e-14       2.12203e-08       5.18077e-01       2.97455e-01       5.18077e-01      
 8.46000e-01       1.14722e-05       2.03236e-06       3.87338e-14       2.22271e-08       5.18077e-01       3.04738e-01       5.18077e-01      
 8.55000e-01       1.17875e-05       2.13703e-06       3.88004e-14       2.32694e-08       5.18077e-01       3.12048e-01       5.18077e-01      
 8.64000e-01       1.21016e-05       2.24453e-06       3.88641e-14       2.43487e-08       5.18077e-01       3.19383e-01       5.18077e-01      
 8.73000e-01       1.24145e-05       2.35485e-06       3.89252e-14       2.54669e-08       5.18077e-01       3.26742e-01       5.18077e-01      
 8.82000e-01       1.27262e-05       2.46799e-06       3.89839e-14       2.66255e-08       5.18077e-01       3.34125e-01       5.18077e-01      
 8.91000e-01       1.30365e-05       2.58392e-06       3.90404e-14       2.78266e-08       5.18077e-01       3.41529e-01       5.18077e-01      
 9.00000e-01       1.33455e-05       2.70264e-06       3.90949e-14       2.90722e-08       5.18077e-01       3.48954e-01       5.18077e-01      
 9.09000e-01       1.36530e-05       2.82413e-06       3.91473e-14       3.03644e-08       5.18077e-01       3.56400e-01       5.18077e-01      
 9.18000e-01       1.39591e-05       2.94839e-06       3.91981e-14       3.17058e-08       5.18077e-01       3.63866e-01       5.18077e-01      
 9.27000e-01       1.42636e-05       3.07539e-06       3.92471e-14       3.30988e-08       5.18077e-01       3.71350e-01       5.18077e-01      
 9.36000e-01       1.45665e-05       3.20513e-06       3.92946e-14       3.45462e-08       5.18077e-01       3.78852e-01       5.18077e-01      
 9.45000e-01       1.48678e-05       3.33759e-06       3.93406e-14       3.60512e-08       5.18077e-01       3.86373e-01       5.18077e-01      
 9.54000e-01       1.51675e-05       3.47275e-06       3.93853e-14       3.76168e-08       5.18077e-01       3.93910e-01       5.18077e-01      
 9.63000e-01       1.54654e-05       3.61059e-06       3.94287e-14       3.92467e-08       5.18077e-01       4.01465e-01       5.18077e-01      
 9.72000e-01       1.57616e-05       3.75112e-06       3.94709e-14       4.09446e-08       5.18077e-01       4.09036e-01       5.18077e-01      
 9.81000e-01       1.60559e-05       3.89430e-06       3.95121e-14       4.27146e-08       5.18077e-01       4.16623e-01       5.18077e-01      
 9.90000e-01       1.63484e-05       4.04012e-06       3.95522e-14       4.45613e-08       5.18077e-01       4.24226e-01       5.18077e-01      
 9.99000e-01       1.66390e-05       4.18856e-06       3.95914e-14       4.64893e-08       5.18077e-01       4.31845e-01       5.18077e-01      
 1.00800e+00       1.69277e-05       4.33962e-06       3.96297e-14       4.85042e-08       5.18077e-01       4.39479e-01       5.18077e-01      
 1.01700e+00       1.72144e-05       4.49326e-06       3.96672e-14       5.06114e-08       5.18077e-01       4.47129e-01       5.18077e-01      
 1.02600e+00       1.74991e-05       4.64947e-06       3.97040e-14       5.28174e-08       5.18077e-01       4.54793e-01       5.18077e-01      
 1.03500e+00       1.77817e-05       4.80823e-06       3.97400e-14       5.51289e-08       5.18077e-01       4.62472e-01       5.18077e-01      
 1.04400e+00       1.80621e-05       4.96953e-06       3.97754e-14       5.75532e-08       5.18077e-01       4.70166e-01       5.18077e-01      
 1.05300e+00       1.83404e-05       5.13334e-06       3.98102e-14       6.00986e-08       5.18077e-01       4.77875e-01       5.18077e-01      
 1.06200e+00       1.86165e-05       5.29965e-06       3.98444e-14       6.27738e-08       5.18077e-01       4.85598e-01       5.18077e-01      
 1.07100e+00       1.88902e-05       5.46843e-06       3.98782e-14       6.55886e-08       5.18077e-01       4.93336e-01       5.18077e-01      
 1.08000e+00       1.91617e-05       5.63967e-06       3.99114e-14       6.85537e-08       5.18077e-01       5.01088e-01       5.18077e-01      
 1.08900e+00       1.94308e-05       5.81334e-06       3.99443e-14       7.16807e-08       5.18077e-01       5.08854e-01       5.18077e-01      
 1.09800e+00       1.96975e-05       5.98942e-06       3.99768e-14       7.49824e-08       5.18077e-01       5.16634e-01       5.18077e-01      
 1.10700e+00       1.99617e-05       6.16788e-06       4.00090e-14       7.84731e-08       5.18077e-01       5.24429e-01       5.18077e-01      
 1.11600e+00       2.02233e-05       6.34872e-06       4.00409e-14       8.21682e-08       5.18077e-01       5.32238e-01       5.18077e-01      
 1.12500e+00       2.04824e-05       6.53190e-06       4.00726e-14       8.60851e-08       5.18077e-01       5.40061e-01       5.18077e-01      
 1.13400e+00       2.07388e-05       6.71739e-06       4.01041e-14       9.02428e-08       5.18077e-01       5.47899e-01       5.18077e-01      
 1.14300e+00       2.09925e-05       6.90519e-06       4.01354e-14       9.46622e-08       5.18077e-01       5.55750e-01       5.18077e-01      
 1.15200e+00       2.12435e-05       7.09525e-06       4.01666e-14       9.93668e-08       5.18077e-01       5.63616e-01       5.18077e-01      
 1.16100e+00       2.14916e-05       7.28756e-06       4.01977e-14       1.04382e-07       5.18077e-01       5.71496e-01       5.18077e-01      
 1.17000e+00       2.17368e-05       7.48209e-06       4.02288e-14       1.09738e-07       5.18077e-01       5.79391e-01       5.18077e-01      
 1.17900e+00       2.19791e-05       7.67882e-06       4.02599e-14       1.15465e-07       5.18077e-01       5.87299e-01       5.18077e-01      
 1.18800e+00       2.22184e-05       7.87771e-06       4.02910e-14       1.21599e-07       5.18077e-01       5.95222e-01       5.18077e-01      
 1.19700e+00       2.24545e-05       8.07874e-06       4.03222e-14       1.28181e-07       5.18077e-01       6.03159e-01       5.18077e-01      
 1.20600e+00       2.26875e-05       8.28188e-06       4.03536e-14       1.35254e-07       5.18077e-01       6.11111e-01       5.18077e-01      
 1.21500e+00       2.29172e-05       8.48710e-06       4.03851e-14       1.42869e-07       5.18077e-01       6.19077e-01       5.18077e-01      
