
dc (V)            getData("M0:gm    getData("M0:id    getData("M0:cg    getData("M0:gd    getData("M0:vt    getData("M0:vd    getData("M0:vt

 0.00000e+00       1.51486e-12       6.79178e-14       1.06713e-14       1.39279e-15       5.17644e-01       4.02277e-02       5.17644e-01      
 9.00000e-03       2.03108e-12       8.37612e-14       1.06229e-14       1.86758e-15       5.17644e-01       4.02277e-02       5.17644e-01      
 1.80000e-02       2.72311e-12       1.05003e-13       1.05761e-14       2.50416e-15       5.17644e-01       4.02277e-02       5.17644e-01      
 2.70000e-02       3.65075e-12       1.33482e-13       1.05310e-14       3.35761e-15       5.17644e-01       4.02278e-02       5.17644e-01      
 3.60000e-02       4.89410e-12       1.71661e-13       1.04875e-14       4.50176e-15       5.17644e-01       4.02278e-02       5.17644e-01      
 4.50000e-02       6.56048e-12       2.22841e-13       1.04459e-14       6.03552e-15       5.17644e-01       4.02278e-02       5.17644e-01      
 5.40000e-02       8.79354e-12       2.91445e-13       1.04060e-14       8.09141e-15       5.17644e-01       4.02279e-02       5.17644e-01      
 6.30000e-02       1.17856e-11       3.83396e-13       1.03682e-14       1.08470e-14       5.17644e-01       4.02280e-02       5.17644e-01      
 7.20000e-02       1.57941e-11       5.06627e-13       1.03325e-14       1.45399e-14       5.17644e-01       4.02281e-02       5.17644e-01      
 8.10000e-02       2.11632e-11       6.71760e-13       1.02991e-14       1.94885e-14       5.17644e-01       4.02283e-02       5.17644e-01      
 9.00000e-02       2.83534e-11       8.93012e-13       1.02683e-14       2.61188e-14       5.17644e-01       4.02285e-02       5.17644e-01      
 9.90000e-02       3.79798e-11       1.18941e-12       1.02405e-14       3.50009e-14       5.17644e-01       4.02289e-02       5.17644e-01      
 1.08000e-01       5.08641e-11       1.58639e-12       1.02159e-14       4.68973e-14       5.17644e-01       4.02293e-02       5.17644e-01      
 1.17000e-01       6.81031e-11       2.11799e-12       1.01950e-14       6.28272e-14       5.17644e-01       4.02298e-02       5.17644e-01      
 1.26000e-01       9.11590e-11       2.82965e-12       1.01785e-14       8.41526e-14       5.17644e-01       4.02306e-02       5.17644e-01      
 1.35000e-01       1.21980e-10       3.78208e-12       1.01670e-14       1.12692e-13       5.17644e-01       4.02316e-02       5.17644e-01      
 1.44000e-01       1.63158e-10       5.05628e-12       1.01614e-14       1.50872e-13       5.17644e-01       4.02329e-02       5.17644e-01      
 1.53000e-01       2.18135e-10       6.76021e-12       1.01627e-14       2.01926e-13       5.17644e-01       4.02347e-02       5.17644e-01      
 1.62000e-01       2.91460e-10       9.03759e-12       1.01715e-14       2.70157e-13       5.17644e-01       4.02371e-02       5.17644e-01      
 1.71000e-01       3.89179e-10       1.20795e-11       1.01898e-14       3.61286e-13       5.17644e-01       4.02403e-02       5.17644e-01      
 1.80000e-01       5.19262e-10       1.61397e-11       1.02194e-14       4.82907e-13       5.17644e-01       4.02445e-02       5.17644e-01      
 1.89000e-01       6.92203e-10       2.15544e-11       1.02621e-14       6.45080e-13       5.17644e-01       4.02502e-02       5.17644e-01      
 1.98000e-01       9.21777e-10       2.87688e-11       1.03202e-14       8.61108e-13       5.17644e-01       4.02578e-02       5.17644e-01      
 2.07000e-01       1.22599e-09       3.83698e-11       1.03963e-14       1.14853e-12       5.17644e-01       4.02678e-02       5.17644e-01      
 2.16000e-01       1.62827e-09       5.11301e-11       1.04930e-14       1.53039e-12       5.17644e-01       4.02812e-02       5.17644e-01      
 2.25000e-01       2.15896e-09       6.80630e-11       1.06136e-14       2.03688e-12       5.17644e-01       4.02989e-02       5.17644e-01      
 2.34000e-01       2.85711e-09       9.04928e-11       1.07614e-14       2.70737e-12       5.17644e-01       4.03223e-02       5.17644e-01      
 2.43000e-01       3.77261e-09       1.20142e-10       1.09398e-14       3.59295e-12       5.17644e-01       4.03532e-02       5.17644e-01      
 2.52000e-01       4.96871e-09       1.59240e-10       1.11524e-14       4.75951e-12       5.17644e-01       4.03940e-02       5.17644e-01      
 2.61000e-01       6.52481e-09       2.10657e-10       1.14029e-14       6.29145e-12       5.17644e-01       4.04474e-02       5.17644e-01      
 2.70000e-01       8.53963e-09       2.78061e-10       1.16945e-14       8.29603e-12       5.17644e-01       4.05172e-02       5.17644e-01      
 2.79000e-01       1.11343e-08       3.66107e-10       1.20306e-14       1.09083e-11       5.17644e-01       4.06080e-02       5.17644e-01      
 2.88000e-01       1.44557e-08       4.80656e-10       1.24138e-14       1.42964e-11       5.17644e-01       4.07257e-02       5.17644e-01      
 2.97000e-01       1.86790e-08       6.29013e-10       1.28463e-14       1.86671e-11       5.17644e-01       4.08770e-02       5.17644e-01      
 3.06000e-01       2.40100e-08       8.20198e-10       1.33297e-14       2.42714e-11       5.17644e-01       4.10704e-02       5.17644e-01      
 3.15000e-01       3.06858e-08       1.06522e-09       1.38647e-14       3.14087e-11       5.17644e-01       4.13158e-02       5.17644e-01      
 3.24000e-01       3.89748e-08       1.37738e-09       1.44514e-14       4.04300e-11       5.17644e-01       4.16243e-02       5.17644e-01      
 3.33000e-01       4.91742e-08       1.77250e-09       1.50887e-14       5.17388e-11       5.17644e-01       4.20087e-02       5.17644e-01      
 3.42000e-01       6.16057e-08       2.26921e-09       1.57748e-14       6.57888e-11       5.17644e-01       4.24826e-02       5.17644e-01      
 3.51000e-01       7.66097e-08       2.88912e-09       1.65071e-14       8.30785e-11       5.17644e-01       4.30605e-02       5.17644e-01      
 3.60000e-01       9.45368e-08       3.65695e-09       1.72821e-14       1.04142e-10       5.17644e-01       4.37569e-02       5.17644e-01      
 3.69000e-01       1.15740e-07       4.60061e-09       1.80955e-14       1.29536e-10       5.17644e-01       4.45858e-02       5.17644e-01      
 3.78000e-01       1.40564e-07       5.75113e-09       1.89422e-14       1.59828e-10       5.17644e-01       4.55603e-02       5.17644e-01      
 3.87000e-01       1.69343e-07       7.14263e-09       1.98170e-14       1.95581e-10       5.17644e-01       4.66915e-02       5.17644e-01      
 3.96000e-01       2.02393e-07       8.81212e-09       2.07139e-14       2.37339e-10       5.17644e-01       4.79886e-02       5.17644e-01      
 4.05000e-01       2.40019e-07       1.07994e-08       2.16268e-14       2.85624e-10       5.17644e-01       4.94584e-02       5.17644e-01      
 4.14000e-01       2.82520e-07       1.31471e-08       2.25494e-14       3.40926e-10       5.17644e-01       5.11057e-02       5.17644e-01      
 4.23000e-01       3.30206e-07       1.59003e-08       2.34757e-14       4.03707e-10       5.17644e-01       5.29329e-02       5.17644e-01      
 4.32000e-01       3.83409e-07       1.91073e-08       2.43996e-14       4.74406e-10       5.17644e-01       5.49413e-02       5.17644e-01      
 4.41000e-01       4.42497e-07       2.28194e-08       2.53154e-14       5.53449e-10       5.17644e-01       5.71306e-02       5.17644e-01      
 4.50000e-01       5.07884e-07       2.70912e-08       2.62180e-14       6.41258e-10       5.17644e-01       5.95005e-02       5.17644e-01      
 4.59000e-01       5.80028e-07       3.19815e-08       2.71025e-14       7.38257e-10       5.17644e-01       6.20499e-02       5.17644e-01      
 4.68000e-01       6.59431e-07       3.75535e-08       2.79648e-14       8.44889e-10       5.17644e-01       6.47783e-02       5.17644e-01      
 4.77000e-01       7.46620e-07       4.38747e-08       2.88013e-14       9.61608e-10       5.17644e-01       6.76849e-02       5.17644e-01      
 4.86000e-01       8.42131e-07       5.10176e-08       2.96090e-14       1.08889e-09       5.17644e-01       7.07695e-02       5.17644e-01      
 4.95000e-01       9.46491e-07       5.90596e-08       3.03856e-14       1.22724e-09       5.17644e-01       7.40319e-02       5.17644e-01      
 5.04000e-01       1.06020e-06       6.80825e-08       3.11293e-14       1.37714e-09       5.17644e-01       7.74722e-02       5.17644e-01      
 5.13000e-01       1.18369e-06       7.81724e-08       3.18390e-14       1.53913e-09       5.17644e-01       8.10902e-02       5.17644e-01      
 5.22000e-01       1.31733e-06       8.94193e-08       3.25140e-14       1.71371e-09       5.17644e-01       8.48855e-02       5.17644e-01      
 5.31000e-01       1.46142e-06       1.01916e-07       3.31540e-14       1.90140e-09       5.17644e-01       8.88574e-02       5.17644e-01      
 5.40000e-01       1.61614e-06       1.15757e-07       3.37592e-14       2.10268e-09       5.17644e-01       9.30046e-02       5.17644e-01      
 5.49000e-01       1.78157e-06       1.31038e-07       3.43301e-14       2.31804e-09       5.17644e-01       9.73253e-02       5.17644e-01      
 5.58000e-01       1.95768e-06       1.47857e-07       3.48675e-14       2.54793e-09       5.17644e-01       1.01817e-01       5.17644e-01      
 5.67000e-01       2.14436e-06       1.66308e-07       3.53725e-14       2.79277e-09       5.17644e-01       1.06477e-01       5.17644e-01      
 5.76000e-01       2.34137e-06       1.86487e-07       3.58461e-14       3.05297e-09       5.17644e-01       1.11300e-01       5.17644e-01      
 5.85000e-01       2.54838e-06       2.08483e-07       3.62898e-14       3.32890e-09       5.17644e-01       1.16284e-01       5.17644e-01      
 5.94000e-01       2.76499e-06       2.32386e-07       3.67049e-14       3.62089e-09       5.17644e-01       1.21422e-01       5.17644e-01      
 6.03000e-01       2.99073e-06       2.58280e-07       3.70930e-14       3.92926e-09       5.17644e-01       1.26710e-01       5.17644e-01      
 6.12000e-01       3.22506e-06       2.86245e-07       3.74556e-14       4.25430e-09       5.17644e-01       1.32141e-01       5.17644e-01      
 6.21000e-01       3.46741e-06       3.16356e-07       3.77941e-14       4.59628e-09       5.17644e-01       1.37709e-01       5.17644e-01      
 6.30000e-01       3.71717e-06       3.48681e-07       3.81100e-14       4.95547e-09       5.17644e-01       1.43409e-01       5.17644e-01      
 6.39000e-01       3.97373e-06       3.83285e-07       3.84049e-14       5.33210e-09       5.17644e-01       1.49233e-01       5.17644e-01      
 6.48000e-01       4.23646e-06       4.20227e-07       3.86801e-14       5.72642e-09       5.17644e-01       1.55174e-01       5.17644e-01      
 6.57000e-01       4.50475e-06       4.59558e-07       3.89369e-14       6.13866e-09       5.17644e-01       1.61228e-01       5.17644e-01      
 6.66000e-01       4.77798e-06       5.01327e-07       3.91768e-14       6.56908e-09       5.17644e-01       1.67386e-01       5.17644e-01      
 6.75000e-01       5.05559e-06       5.45575e-07       3.94008e-14       7.01793e-09       5.17644e-01       1.73643e-01       5.17644e-01      
 6.84000e-01       5.33702e-06       5.92339e-07       3.96102e-14       7.48547e-09       5.17644e-01       1.79992e-01       5.17644e-01      
 6.93000e-01       5.62175e-06       6.41651e-07       3.98061e-14       7.97199e-09       5.17644e-01       1.86429e-01       5.17644e-01      
 7.02000e-01       5.90930e-06       6.93539e-07       3.99894e-14       8.47781e-09       5.17644e-01       1.92946e-01       5.17644e-01      
 7.11000e-01       6.19921e-06       7.48026e-07       4.01611e-14       9.00326e-09       5.17644e-01       1.99539e-01       5.17644e-01      
 7.20000e-01       6.49109e-06       8.05131e-07       4.03222e-14       9.54870e-09       5.17644e-01       2.06203e-01       5.17644e-01      
 7.29000e-01       6.78454e-06       8.64870e-07       4.04734e-14       1.01145e-08       5.17644e-01       2.12933e-01       5.17644e-01      
 7.38000e-01       7.07923e-06       9.27256e-07       4.06155e-14       1.07012e-08       5.17644e-01       2.19725e-01       5.17644e-01      
 7.47000e-01       7.37485e-06       9.92299e-07       4.07492e-14       1.13092e-08       5.17644e-01       2.26573e-01       5.17644e-01      
 7.56000e-01       7.67113e-06       1.06001e-06       4.08752e-14       1.19391e-08       5.17644e-01       2.33476e-01       5.17644e-01      
 7.65000e-01       7.96781e-06       1.13038e-06       4.09940e-14       1.25913e-08       5.17644e-01       2.40428e-01       5.17644e-01      
 7.74000e-01       8.26468e-06       1.20343e-06       4.11063e-14       1.32666e-08       5.17644e-01       2.47427e-01       5.17644e-01      
 7.83000e-01       8.56155e-06       1.27914e-06       4.12125e-14       1.39657e-08       5.17644e-01       2.54469e-01       5.17644e-01      
 7.92000e-01       8.85823e-06       1.35753e-06       4.13131e-14       1.46891e-08       5.17644e-01       2.61552e-01       5.17644e-01      
 8.01000e-01       9.15458e-06       1.43859e-06       4.14085e-14       1.54379e-08       5.17644e-01       2.68673e-01       5.17644e-01      
 8.10000e-01       9.45045e-06       1.52231e-06       4.14991e-14       1.62128e-08       5.17644e-01       2.75830e-01       5.17644e-01      
 8.19000e-01       9.74573e-06       1.60870e-06       4.15853e-14       1.70147e-08       5.17644e-01       2.83021e-01       5.17644e-01      
 8.28000e-01       1.00403e-05       1.69774e-06       4.16675e-14       1.78448e-08       5.17644e-01       2.90243e-01       5.17644e-01      
 8.37000e-01       1.03341e-05       1.78942e-06       4.17458e-14       1.87040e-08       5.17644e-01       2.97496e-01       5.17644e-01      
 8.46000e-01       1.06270e-05       1.88375e-06       4.18207e-14       1.95935e-08       5.17644e-01       3.04776e-01       5.17644e-01      
 8.55000e-01       1.09189e-05       1.98070e-06       4.18923e-14       2.05147e-08       5.17644e-01       3.12083e-01       5.17644e-01      
 8.64000e-01       1.12098e-05       2.08028e-06       4.19609e-14       2.14690e-08       5.17644e-01       3.19416e-01       5.17644e-01      
 8.73000e-01       1.14996e-05       2.18248e-06       4.20268e-14       2.24577e-08       5.17644e-01       3.26773e-01       5.17644e-01      
 8.82000e-01       1.17882e-05       2.28727e-06       4.20900e-14       2.34825e-08       5.17644e-01       3.34153e-01       5.17644e-01      
 8.91000e-01       1.20757e-05       2.39466e-06       4.21509e-14       2.45451e-08       5.17644e-01       3.41555e-01       5.17644e-01      
 9.00000e-01       1.23618e-05       2.50463e-06       4.22095e-14       2.56473e-08       5.17644e-01       3.48978e-01       5.17644e-01      
 9.09000e-01       1.26467e-05       2.61717e-06       4.22660e-14       2.67912e-08       5.17644e-01       3.56421e-01       5.17644e-01      
 9.18000e-01       1.29302e-05       2.73227e-06       4.23207e-14       2.79790e-08       5.17644e-01       3.63885e-01       5.17644e-01      
 9.27000e-01       1.32122e-05       2.84991e-06       4.23735e-14       2.92129e-08       5.17644e-01       3.71367e-01       5.17644e-01      
 9.36000e-01       1.34929e-05       2.97008e-06       4.24246e-14       3.04955e-08       5.17644e-01       3.78868e-01       5.17644e-01      
 9.45000e-01       1.37720e-05       3.09278e-06       4.24742e-14       3.18294e-08       5.17644e-01       3.86386e-01       5.17644e-01      
 9.54000e-01       1.40496e-05       3.21797e-06       4.25224e-14       3.32177e-08       5.17644e-01       3.93922e-01       5.17644e-01      
 9.63000e-01       1.43257e-05       3.34566e-06       4.25691e-14       3.46635e-08       5.17644e-01       4.01475e-01       5.17644e-01      
 9.72000e-01       1.46001e-05       3.47583e-06       4.26147e-14       3.61702e-08       5.17644e-01       4.09045e-01       5.17644e-01      
 9.81000e-01       1.48729e-05       3.60846e-06       4.26590e-14       3.77416e-08       5.17644e-01       4.16631e-01       5.17644e-01      
 9.90000e-01       1.51440e-05       3.74354e-06       4.27023e-14       3.93818e-08       5.17644e-01       4.24233e-01       5.17644e-01      
 9.99000e-01       1.54133e-05       3.88105e-06       4.27445e-14       4.10950e-08       5.17644e-01       4.31851e-01       5.17644e-01      
 1.00800e+00       1.56809e-05       4.02097e-06       4.27858e-14       4.28862e-08       5.17644e-01       4.39484e-01       5.17644e-01      
 1.01700e+00       1.59466e-05       4.16330e-06       4.28262e-14       4.47605e-08       5.17644e-01       4.47133e-01       5.17644e-01      
 1.02600e+00       1.62104e-05       4.30801e-06       4.28658e-14       4.67235e-08       5.17644e-01       4.54797e-01       5.17644e-01      
 1.03500e+00       1.64724e-05       4.45508e-06       4.29046e-14       4.87815e-08       5.17644e-01       4.62475e-01       5.17644e-01      
 1.04400e+00       1.67324e-05       4.60450e-06       4.29428e-14       5.09413e-08       5.17644e-01       4.70169e-01       5.17644e-01      
 1.05300e+00       1.69904e-05       4.75626e-06       4.29803e-14       5.32101e-08       5.17644e-01       4.77877e-01       5.17644e-01      
 1.06200e+00       1.72463e-05       4.91032e-06       4.30172e-14       5.55961e-08       5.17644e-01       4.85600e-01       5.17644e-01      
 1.07100e+00       1.75002e-05       5.06668e-06       4.30536e-14       5.81081e-08       5.17644e-01       4.93338e-01       5.17644e-01      
 1.08000e+00       1.77519e-05       5.22532e-06       4.30894e-14       6.07558e-08       5.17644e-01       5.01090e-01       5.17644e-01      
 1.08900e+00       1.80014e-05       5.38621e-06       4.31249e-14       6.35499e-08       5.17644e-01       5.08857e-01       5.17644e-01      
 1.09800e+00       1.82487e-05       5.54934e-06       4.31599e-14       6.65022e-08       5.17644e-01       5.16638e-01       5.17644e-01      
 1.10700e+00       1.84938e-05       5.71468e-06       4.31946e-14       6.96255e-08       5.17644e-01       5.24433e-01       5.17644e-01      
 1.11600e+00       1.87365e-05       5.88222e-06       4.32290e-14       7.29342e-08       5.17644e-01       5.32243e-01       5.17644e-01      
 1.12500e+00       1.89768e-05       6.05193e-06       4.32631e-14       7.64439e-08       5.17644e-01       5.40067e-01       5.17644e-01      
 1.13400e+00       1.92146e-05       6.22380e-06       4.32971e-14       8.01722e-08       5.17644e-01       5.47905e-01       5.17644e-01      
 1.14300e+00       1.94500e-05       6.39779e-06       4.33308e-14       8.41382e-08       5.17644e-01       5.55758e-01       5.17644e-01      
 1.15200e+00       1.96828e-05       6.57389e-06       4.33644e-14       8.83634e-08       5.17644e-01       5.63625e-01       5.17644e-01      
 1.16100e+00       1.99131e-05       6.75207e-06       4.33979e-14       9.28715e-08       5.17644e-01       5.71506e-01       5.17644e-01      
 1.17000e+00       2.01406e-05       6.93231e-06       4.34314e-14       9.76889e-08       5.17644e-01       5.79402e-01       5.17644e-01      
 1.17900e+00       2.03654e-05       7.11459e-06       4.34649e-14       1.02845e-07       5.17644e-01       5.87312e-01       5.17644e-01      
 1.18800e+00       2.05875e-05       7.29888e-06       4.34984e-14       1.08373e-07       5.17644e-01       5.95236e-01       5.17644e-01      
 1.19700e+00       2.08067e-05       7.48516e-06       4.35321e-14       1.14308e-07       5.17644e-01       6.03175e-01       5.17644e-01      
 1.20600e+00       2.10229e-05       7.67340e-06       4.35659e-14       1.20692e-07       5.17644e-01       6.11129e-01       5.17644e-01      
 1.21500e+00       2.12362e-05       7.86356e-06       4.35998e-14       1.27571e-07       5.17644e-01       6.19097e-01       5.17644e-01      
