
dc (V)            getData("M0:gm    getData("M0:id    getData("M0:cg    getData("M0:gd    getData("M0:vt    getData("M0:vd    getData("M0:vt

 0.00000e+00       9.82962e-13       5.15639e-14       1.68747e-14       6.79489e-16       5.15599e-01       4.00286e-02       5.15599e-01      
 9.00000e-03       1.31838e-12       6.18463e-14       1.67970e-14       9.11435e-16       5.15599e-01       4.00286e-02       5.15599e-01      
 1.80000e-02       1.76818e-12       7.56369e-14       1.67218e-14       1.22252e-15       5.15599e-01       4.00287e-02       5.15599e-01      
 2.70000e-02       2.37131e-12       9.41321e-14       1.66494e-14       1.63973e-15       5.15599e-01       4.00287e-02       5.15599e-01      
 3.60000e-02       3.17999e-12       1.18935e-13       1.65797e-14       2.19924e-15       5.15599e-01       4.00287e-02       5.15599e-01      
 4.50000e-02       4.26415e-12       1.52196e-13       1.65128e-14       2.94952e-15       5.15599e-01       4.00288e-02       5.15599e-01      
 5.40000e-02       5.71748e-12       1.96795e-13       1.64490e-14       3.95556e-15       5.15599e-01       4.00289e-02       5.15599e-01      
 6.30000e-02       7.66542e-12       2.56590e-13       1.63885e-14       5.30440e-15       5.15599e-01       4.00290e-02       5.15599e-01      
 7.20000e-02       1.02759e-11       3.36754e-13       1.63315e-14       7.11270e-15       5.15599e-01       4.00291e-02       5.15599e-01      
 8.10000e-02       1.37735e-11       4.44210e-13       1.62783e-14       9.53663e-15       5.15599e-01       4.00293e-02       5.15599e-01      
 9.00000e-02       1.84589e-11       5.88231e-13       1.62294e-14       1.27853e-14       5.15599e-01       4.00295e-02       5.15599e-01      
 9.90000e-02       2.47336e-11       7.81225e-13       1.61852e-14       1.71387e-14       5.15599e-01       4.00299e-02       5.15599e-01      
 1.08000e-01       3.31344e-11       1.03980e-12       1.61465e-14       2.29712e-14       5.15599e-01       4.00303e-02       5.15599e-01      
 1.17000e-01       4.43774e-11       1.38615e-12       1.61140e-14       3.07837e-14       5.15599e-01       4.00309e-02       5.15599e-01      
 1.26000e-01       5.94180e-11       1.84995e-12       1.60886e-14       4.12452e-14       5.15599e-01       4.00317e-02       5.15599e-01      
 1.35000e-01       7.95289e-11       2.47084e-12       1.60717e-14       5.52495e-14       5.15599e-01       4.00327e-02       5.15599e-01      
 1.44000e-01       1.06404e-10       3.30171e-12       1.60644e-14       7.39892e-14       5.15599e-01       4.00341e-02       5.15599e-01      
 1.53000e-01       1.42292e-10       4.41307e-12       1.60687e-14       9.90541e-14       5.15599e-01       4.00360e-02       5.15599e-01      
 1.62000e-01       1.90165e-10       5.89881e-12       1.60854e-14       1.32560e-13       5.15599e-01       4.00385e-02       5.15599e-01      
 1.71000e-01       2.53972e-10       7.88372e-12       1.61181e-14       1.77319e-13       5.15599e-01       4.00419e-02       5.15599e-01      
 1.80000e-01       3.38921e-10       1.05336e-11       1.61693e-14       2.37065e-13       5.15599e-01       4.00464e-02       5.15599e-01      
 1.89000e-01       4.51863e-10       1.40681e-11       1.62425e-14       3.16744e-13       5.15599e-01       4.00523e-02       5.15599e-01      
 1.98000e-01       6.01788e-10       1.87778e-11       1.63412e-14       4.22893e-13       5.15599e-01       4.00603e-02       5.15599e-01      
 2.07000e-01       8.00443e-10       2.50461e-11       1.64695e-14       5.64130e-13       5.15599e-01       4.00709e-02       5.15599e-01      
 2.16000e-01       1.06310e-09       3.33773e-11       1.66323e-14       7.51776e-13       5.15599e-01       4.00850e-02       5.15599e-01      
 2.25000e-01       1.40953e-09       4.44327e-11       1.68344e-14       1.00065e-12       5.15599e-01       4.01037e-02       5.15599e-01      
 2.34000e-01       1.86512e-09       5.90756e-11       1.70814e-14       1.33007e-12       5.15599e-01       4.01284e-02       5.15599e-01      
 2.43000e-01       2.46229e-09       7.84287e-11       1.73788e-14       1.76506e-12       5.15599e-01       4.01610e-02       5.15599e-01      
 2.52000e-01       3.24207e-09       1.03944e-10       1.77326e-14       2.33789e-12       5.15599e-01       4.02039e-02       5.15599e-01      
 2.61000e-01       4.25587e-09       1.37487e-10       1.81484e-14       3.08980e-12       5.15599e-01       4.02601e-02       5.15599e-01      
 2.70000e-01       5.56744e-09       1.81441e-10       1.86316e-14       4.07313e-12       5.15599e-01       4.03336e-02       5.15599e-01      
 2.79000e-01       7.25488e-09       2.38827e-10       1.91872e-14       5.35363e-12       5.15599e-01       4.04292e-02       5.15599e-01      
 2.88000e-01       9.41250e-09       3.13438e-10       1.98196e-14       7.01297e-12       5.15599e-01       4.05528e-02       5.15599e-01      
 2.97000e-01       1.21525e-08       4.09997e-10       2.05320e-14       9.15129e-12       5.15599e-01       4.07116e-02       5.15599e-01      
 3.06000e-01       1.56062e-08       5.34322e-10       2.13266e-14       1.18896e-11       5.15599e-01       4.09144e-02       5.15599e-01      
 3.15000e-01       1.99242e-08       6.93499e-10       2.22045e-14       1.53719e-11       5.15599e-01       4.11711e-02       5.15599e-01      
 3.24000e-01       2.52766e-08       8.96059e-10       2.31652e-14       1.97660e-11       5.15599e-01       4.14935e-02       5.15599e-01      
 3.33000e-01       3.18502e-08       1.15214e-09       2.42071e-14       2.52639e-11       5.15599e-01       4.18943e-02       5.15599e-01      
 3.42000e-01       3.98470e-08       1.47363e-09       2.53267e-14       3.20803e-11       5.15599e-01       4.23873e-02       5.15599e-01      
 3.51000e-01       4.94789e-08       1.87429e-09       2.65195e-14       4.04494e-11       5.15599e-01       4.29871e-02       5.15599e-01      
 3.60000e-01       6.09636e-08       2.36981e-09       2.77795e-14       5.06206e-11       5.15599e-01       4.37079e-02       5.15599e-01      
 3.69000e-01       7.45186e-08       2.97785e-09       2.90997e-14       6.28525e-11       5.15599e-01       4.45637e-02       5.15599e-01      
 3.78000e-01       9.03564e-08       3.71799e-09       3.04718e-14       7.74065e-11       5.15599e-01       4.55670e-02       5.15599e-01      
 3.87000e-01       1.08681e-07       4.61172e-09       3.18868e-14       9.45405e-11       5.15599e-01       4.67286e-02       5.15599e-01      
 3.96000e-01       1.29688e-07       5.68230e-09       3.33353e-14       1.14504e-10       5.15599e-01       4.80570e-02       5.15599e-01      
 4.05000e-01       1.53564e-07       6.95471e-09       3.48073e-14       1.37533e-10       5.15599e-01       4.95586e-02       5.15599e-01      
 4.14000e-01       1.80498e-07       8.45562e-09       3.62927e-14       1.63854e-10       5.15599e-01       5.12375e-02       5.15599e-01      
 4.23000e-01       2.10685e-07       1.02134e-08       3.77817e-14       1.93678e-10       5.15599e-01       5.30959e-02       5.15599e-01      
 4.32000e-01       2.44338e-07       1.22584e-08       3.92648e-14       2.27209e-10       5.15599e-01       5.51346e-02       5.15599e-01      
 4.41000e-01       2.81694e-07       1.46226e-08       4.07328e-14       2.64648e-10       5.15599e-01       5.73535e-02       5.15599e-01      
 4.50000e-01       3.23018e-07       1.73407e-08       4.21776e-14       3.06196e-10       5.15599e-01       5.97520e-02       5.15599e-01      
 4.59000e-01       3.68604e-07       2.04497e-08       4.35917e-14       3.52058e-10       5.15599e-01       6.23292e-02       5.15599e-01      
 4.68000e-01       4.18770e-07       2.39894e-08       4.49685e-14       4.02447e-10       5.15599e-01       6.50846e-02       5.15599e-01      
 4.77000e-01       4.73850e-07       2.80023e-08       4.63026e-14       4.57587e-10       5.15599e-01       6.80176e-02       5.15599e-01      
 4.86000e-01       5.34178e-07       3.25344e-08       4.75894e-14       5.17712e-10       5.15599e-01       7.11281e-02       5.15599e-01      
 4.95000e-01       6.00083e-07       3.76343e-08       4.88254e-14       5.83063e-10       5.15599e-01       7.44160e-02       5.15599e-01      
 5.04000e-01       6.71867e-07       4.33535e-08       5.00079e-14       6.53889e-10       5.15599e-01       7.78814e-02       5.15599e-01      
 5.13000e-01       7.49800e-07       4.97463e-08       5.11353e-14       7.30442e-10       5.15599e-01       8.15241e-02       5.15599e-01      
 5.22000e-01       8.34103e-07       5.68690e-08       5.22066e-14       8.12973e-10       5.15599e-01       8.53438e-02       5.15599e-01      
 5.31000e-01       9.24943e-07       6.47798e-08       5.32216e-14       9.01732e-10       5.15599e-01       8.93396e-02       5.15599e-01      
 5.40000e-01       1.02243e-06       7.35379e-08       5.41808e-14       9.96961e-10       5.15599e-01       9.35104e-02       5.15599e-01      
 5.49000e-01       1.12659e-06       8.32035e-08       5.50850e-14       1.09889e-09       5.15599e-01       9.78540e-02       5.15599e-01      
 5.58000e-01       1.23741e-06       9.38366e-08       5.59357e-14       1.20775e-09       5.15599e-01       1.02368e-01       5.15599e-01      
 5.67000e-01       1.35480e-06       1.05497e-07       5.67345e-14       1.32374e-09       5.15599e-01       1.07049e-01       5.15599e-01      
 5.76000e-01       1.47859e-06       1.18242e-07       5.74835e-14       1.44705e-09       5.15599e-01       1.11893e-01       5.15599e-01      
 5.85000e-01       1.60859e-06       1.32130e-07       5.81848e-14       1.57787e-09       5.15599e-01       1.16896e-01       5.15599e-01      
 5.94000e-01       1.74453e-06       1.47215e-07       5.88407e-14       1.71637e-09       5.15599e-01       1.22053e-01       5.15599e-01      
 6.03000e-01       1.88610e-06       1.63548e-07       5.94537e-14       1.86269e-09       5.15599e-01       1.27358e-01       5.15599e-01      
 6.12000e-01       2.03298e-06       1.81180e-07       6.00262e-14       2.01699e-09       5.15599e-01       1.32805e-01       5.15599e-01      
 6.21000e-01       2.18480e-06       2.00157e-07       6.05606e-14       2.17939e-09       5.15599e-01       1.38389e-01       5.15599e-01      
 6.30000e-01       2.34119e-06       2.20521e-07       6.10593e-14       2.35002e-09       5.15599e-01       1.44102e-01       5.15599e-01      
 6.39000e-01       2.50177e-06       2.42311e-07       6.15247e-14       2.52901e-09       5.15599e-01       1.49938e-01       5.15599e-01      
 6.48000e-01       2.66614e-06       2.65564e-07       6.19589e-14       2.71648e-09       5.15599e-01       1.55892e-01       5.15599e-01      
 6.57000e-01       2.83392e-06       2.90312e-07       6.23642e-14       2.91255e-09       5.15599e-01       1.61955e-01       5.15599e-01      
 6.66000e-01       3.00476e-06       3.16584e-07       6.27426e-14       3.11734e-09       5.15599e-01       1.68123e-01       5.15599e-01      
 6.75000e-01       3.17828e-06       3.44405e-07       6.30960e-14       3.33098e-09       5.15599e-01       1.74388e-01       5.15599e-01      
 6.84000e-01       3.35416e-06       3.73800e-07       6.34264e-14       3.55361e-09       5.15599e-01       1.80745e-01       5.15599e-01      
 6.93000e-01       3.53207e-06       4.04786e-07       6.37354e-14       3.78538e-09       5.15599e-01       1.87188e-01       5.15599e-01      
 7.02000e-01       3.71173e-06       4.37382e-07       6.40246e-14       4.02644e-09       5.15599e-01       1.93712e-01       5.15599e-01      
 7.11000e-01       3.89285e-06       4.71602e-07       6.42956e-14       4.27698e-09       5.15599e-01       2.00310e-01       5.15599e-01      
 7.20000e-01       4.07519e-06       5.07457e-07       6.45498e-14       4.53719e-09       5.15599e-01       2.06979e-01       5.15599e-01      
 7.29000e-01       4.25852e-06       5.44958e-07       6.47884e-14       4.80727e-09       5.15599e-01       2.13713e-01       5.15599e-01      
 7.38000e-01       4.44263e-06       5.84113e-07       6.50126e-14       5.08745e-09       5.15599e-01       2.20509e-01       5.15599e-01      
 7.47000e-01       4.62733e-06       6.24927e-07       6.52237e-14       5.37798e-09       5.15599e-01       2.27362e-01       5.15599e-01      
 7.56000e-01       4.81247e-06       6.67406e-07       6.54226e-14       5.67915e-09       5.15599e-01       2.34268e-01       5.15599e-01      
 7.65000e-01       4.99788e-06       7.11553e-07       6.56102e-14       5.99126e-09       5.15599e-01       2.41224e-01       5.15599e-01      
 7.74000e-01       5.18344e-06       7.57369e-07       6.57875e-14       6.31462e-09       5.15599e-01       2.48226e-01       5.15599e-01      
 7.83000e-01       5.36903e-06       8.04855e-07       6.59552e-14       6.64961e-09       5.15599e-01       2.55272e-01       5.15599e-01      
 7.92000e-01       5.55454e-06       8.54011e-07       6.61140e-14       6.99662e-09       5.15599e-01       2.62359e-01       5.15599e-01      
 8.01000e-01       5.73987e-06       9.04836e-07       6.62648e-14       7.35606e-09       5.15599e-01       2.69485e-01       5.15599e-01      
 8.10000e-01       5.92495e-06       9.57328e-07       6.64080e-14       7.72841e-09       5.15599e-01       2.76646e-01       5.15599e-01      
 8.19000e-01       6.10970e-06       1.01148e-06       6.65442e-14       8.11417e-09       5.15599e-01       2.83842e-01       5.15599e-01      
 8.28000e-01       6.29406e-06       1.06730e-06       6.66740e-14       8.51387e-09       5.15599e-01       2.91069e-01       5.15599e-01      
 8.37000e-01       6.47797e-06       1.12478e-06       6.67979e-14       8.92811e-09       5.15599e-01       2.98327e-01       5.15599e-01      
 8.46000e-01       6.66137e-06       1.18390e-06       6.69163e-14       9.35753e-09       5.15599e-01       3.05613e-01       5.15599e-01      
 8.55000e-01       6.84421e-06       1.24468e-06       6.70295e-14       9.80281e-09       5.15599e-01       3.12927e-01       5.15599e-01      
 8.64000e-01       7.02647e-06       1.30710e-06       6.71381e-14       1.02647e-08       5.15599e-01       3.20267e-01       5.15599e-01      
 8.73000e-01       7.20808e-06       1.37115e-06       6.72423e-14       1.07440e-08       5.15599e-01       3.27632e-01       5.15599e-01      
 8.82000e-01       7.38902e-06       1.43684e-06       6.73424e-14       1.12416e-08       5.15599e-01       3.35020e-01       5.15599e-01      
 8.91000e-01       7.56926e-06       1.50415e-06       6.74387e-14       1.17584e-08       5.15599e-01       3.42431e-01       5.15599e-01      
 9.00000e-01       7.74875e-06       1.57308e-06       6.75315e-14       1.22955e-08       5.15599e-01       3.49864e-01       5.15599e-01      
 9.09000e-01       7.92748e-06       1.64363e-06       6.76211e-14       1.28539e-08       5.15599e-01       3.57318e-01       5.15599e-01      
 9.18000e-01       8.10541e-06       1.71578e-06       6.77076e-14       1.34348e-08       5.15599e-01       3.64793e-01       5.15599e-01      
 9.27000e-01       8.28251e-06       1.78952e-06       6.77913e-14       1.40396e-08       5.15599e-01       3.72287e-01       5.15599e-01      
 9.36000e-01       8.45876e-06       1.86486e-06       6.78724e-14       1.46697e-08       5.15599e-01       3.79800e-01       5.15599e-01      
 9.45000e-01       8.63413e-06       1.94178e-06       6.79510e-14       1.53265e-08       5.15599e-01       3.87332e-01       5.15599e-01      
 9.54000e-01       8.80859e-06       2.02027e-06       6.80273e-14       1.60116e-08       5.15599e-01       3.94883e-01       5.15599e-01      
 9.63000e-01       8.98212e-06       2.10033e-06       6.81016e-14       1.67270e-08       5.15599e-01       4.02451e-01       5.15599e-01      
 9.72000e-01       9.15469e-06       2.18195e-06       6.81738e-14       1.74746e-08       5.15599e-01       4.10036e-01       5.15599e-01      
 9.81000e-01       9.32627e-06       2.26511e-06       6.82442e-14       1.82564e-08       5.15599e-01       4.17639e-01       5.15599e-01      
 9.90000e-01       9.49684e-06       2.34982e-06       6.83128e-14       1.90747e-08       5.15599e-01       4.25259e-01       5.15599e-01      
 9.99000e-01       9.66636e-06       2.43605e-06       6.83799e-14       1.99321e-08       5.15599e-01       4.32895e-01       5.15599e-01      
 1.00800e+00       9.83483e-06       2.52381e-06       6.84455e-14       2.08314e-08       5.15599e-01       4.40547e-01       5.15599e-01      
 1.01700e+00       1.00022e-05       2.61308e-06       6.85096e-14       2.17755e-08       5.15599e-01       4.48216e-01       5.15599e-01      
 1.02600e+00       1.01684e-05       2.70384e-06       6.85725e-14       2.27676e-08       5.15599e-01       4.55901e-01       5.15599e-01      
 1.03500e+00       1.03335e-05       2.79610e-06       6.86343e-14       2.38115e-08       5.15599e-01       4.63601e-01       5.15599e-01      
 1.04400e+00       1.04975e-05       2.88984e-06       6.86949e-14       2.49109e-08       5.15599e-01       4.71317e-01       5.15599e-01      
 1.05300e+00       1.06602e-05       2.98505e-06       6.87545e-14       2.60703e-08       5.15599e-01       4.79049e-01       5.15599e-01      
 1.06200e+00       1.08217e-05       3.08172e-06       6.88131e-14       2.72944e-08       5.15599e-01       4.86796e-01       5.15599e-01      
 1.07100e+00       1.09819e-05       3.17984e-06       6.88710e-14       2.85884e-08       5.15599e-01       4.94559e-01       5.15599e-01      
 1.08000e+00       1.11408e-05       3.27939e-06       6.89280e-14       2.99580e-08       5.15599e-01       5.02337e-01       5.15599e-01      
 1.08900e+00       1.12984e-05       3.38037e-06       6.89844e-14       3.14095e-08       5.15599e-01       5.10131e-01       5.15599e-01      
 1.09800e+00       1.14547e-05       3.48276e-06       6.90401e-14       3.29501e-08       5.15599e-01       5.17940e-01       5.15599e-01      
 1.10700e+00       1.16095e-05       3.58655e-06       6.90952e-14       3.45873e-08       5.15599e-01       5.25764e-01       5.15599e-01      
 1.11600e+00       1.17630e-05       3.69173e-06       6.91499e-14       3.63299e-08       5.15599e-01       5.33603e-01       5.15599e-01      
 1.12500e+00       1.19150e-05       3.79828e-06       6.92042e-14       3.81872e-08       5.15599e-01       5.41457e-01       5.15599e-01      
 1.13400e+00       1.20655e-05       3.90619e-06       6.92581e-14       4.01699e-08       5.15599e-01       5.49327e-01       5.15599e-01      
 1.14300e+00       1.22145e-05       4.01546e-06       6.93117e-14       4.22896e-08       5.15599e-01       5.57211e-01       5.15599e-01      
 1.15200e+00       1.23619e-05       4.12605e-06       6.93651e-14       4.45594e-08       5.15599e-01       5.65111e-01       5.15599e-01      
 1.16100e+00       1.25078e-05       4.23797e-06       6.94184e-14       4.69938e-08       5.15599e-01       5.73026e-01       5.15599e-01      
 1.17000e+00       1.26520e-05       4.35119e-06       6.94716e-14       4.96091e-08       5.15599e-01       5.80957e-01       5.15599e-01      
 1.17900e+00       1.27946e-05       4.46570e-06       6.95248e-14       5.24234e-08       5.15599e-01       5.88902e-01       5.15599e-01      
 1.18800e+00       1.29354e-05       4.58148e-06       6.95781e-14       5.54570e-08       5.15599e-01       5.96863e-01       5.15599e-01      
 1.19700e+00       1.30745e-05       4.69853e-06       6.96315e-14       5.87326e-08       5.15599e-01       6.04839e-01       5.15599e-01      
 1.20600e+00       1.32118e-05       4.81682e-06       6.96851e-14       6.22757e-08       5.15599e-01       6.12831e-01       5.15599e-01      
 1.21500e+00       1.33473e-05       4.93634e-06       6.97390e-14       6.61148e-08       5.15599e-01       6.20837e-01       5.15599e-01      
