
dc (V)            getData("M0:gm    getData("M0:id    getData("M0:cg    getData("M0:gd    getData("M0:vt    getData("M0:vd    getData("M0:vt

 0.00000e+00       1.48550e-12       6.70125e-14       1.08889e-14       1.34462e-15       5.17531e-01       4.02129e-02       5.17531e-01      
 9.00000e-03       1.99178e-12       8.25491e-14       1.08395e-14       1.80305e-15       5.17531e-01       4.02129e-02       5.17531e-01      
 1.80000e-02       2.67049e-12       1.03380e-13       1.07917e-14       2.41770e-15       5.17531e-01       4.02129e-02       5.17531e-01      
 2.70000e-02       3.58031e-12       1.31309e-13       1.07456e-14       3.24177e-15       5.17531e-01       4.02130e-02       5.17531e-01      
 3.60000e-02       4.79982e-12       1.68752e-13       1.07013e-14       4.34657e-15       5.17531e-01       4.02130e-02       5.17531e-01      
 4.50000e-02       6.43427e-12       2.18947e-13       1.06587e-14       5.82763e-15       5.17531e-01       4.02131e-02       5.17531e-01      
 5.40000e-02       8.62463e-12       2.86232e-13       1.06180e-14       7.81294e-15       5.17531e-01       4.02131e-02       5.17531e-01      
 6.30000e-02       1.15596e-11       3.76418e-13       1.05794e-14       1.04740e-14       5.17531e-01       4.02132e-02       5.17531e-01      
 7.20000e-02       1.54916e-11       4.97287e-13       1.05430e-14       1.40403e-14       5.17531e-01       4.02134e-02       5.17531e-01      
 8.10000e-02       2.07585e-11       6.59260e-13       1.05089e-14       1.88194e-14       5.17531e-01       4.02135e-02       5.17531e-01      
 9.00000e-02       2.78119e-11       8.76284e-13       1.04775e-14       2.52229e-14       5.17531e-01       4.02138e-02       5.17531e-01      
 9.90000e-02       3.72555e-11       1.16702e-12       1.04490e-14       3.38013e-14       5.17531e-01       4.02141e-02       5.17531e-01      
 1.08000e-01       4.98956e-11       1.55645e-12       1.04239e-14       4.52911e-14       5.17531e-01       4.02145e-02       5.17531e-01      
 1.17000e-01       6.68081e-11       2.07793e-12       1.04027e-14       6.06772e-14       5.17531e-01       4.02151e-02       5.17531e-01      
 1.26000e-01       8.94280e-11       2.77607e-12       1.03858e-14       8.12751e-14       5.17531e-01       4.02158e-02       5.17531e-01      
 1.35000e-01       1.19667e-10       3.71043e-12       1.03741e-14       1.08842e-13       5.17531e-01       4.02168e-02       5.17531e-01      
 1.44000e-01       1.60068e-10       4.96047e-12       1.03685e-14       1.45721e-13       5.17531e-01       4.02181e-02       5.17531e-01      
 1.53000e-01       2.14009e-10       6.63216e-12       1.03699e-14       1.95037e-13       5.17531e-01       4.02199e-02       5.17531e-01      
 1.62000e-01       2.85955e-10       8.86649e-12       1.03789e-14       2.60947e-13       5.17531e-01       4.02223e-02       5.17531e-01      
 1.71000e-01       3.81836e-10       1.18510e-11       1.03978e-14       3.48978e-13       5.17531e-01       4.02255e-02       5.17531e-01      
 1.80000e-01       5.09475e-10       1.58346e-11       1.04281e-14       4.66467e-13       5.17531e-01       4.02298e-02       5.17531e-01      
 1.89000e-01       6.79170e-10       2.11474e-11       1.04719e-14       6.23134e-13       5.17531e-01       4.02355e-02       5.17531e-01      
 1.98000e-01       9.04438e-10       2.82259e-11       1.05314e-14       8.31830e-13       5.17531e-01       4.02430e-02       5.17531e-01      
 2.07000e-01       1.20295e-09       3.76464e-11       1.06093e-14       1.10950e-12       5.17531e-01       4.02531e-02       5.17531e-01      
 2.16000e-01       1.59769e-09       5.01670e-11       1.07084e-14       1.47841e-12       5.17531e-01       4.02665e-02       5.17531e-01      
 2.25000e-01       2.11844e-09       6.67820e-11       1.08318e-14       1.96773e-12       5.17531e-01       4.02843e-02       5.17531e-01      
 2.34000e-01       2.80350e-09       8.87907e-11       1.09831e-14       2.61550e-12       5.17531e-01       4.03078e-02       5.17531e-01      
 2.43000e-01       3.70183e-09       1.17883e-10       1.11656e-14       3.47107e-12       5.17531e-01       4.03388e-02       5.17531e-01      
 2.52000e-01       4.87548e-09       1.56248e-10       1.13832e-14       4.59810e-12       5.17531e-01       4.03796e-02       5.17531e-01      
 2.61000e-01       6.40235e-09       2.06700e-10       1.16394e-14       6.07811e-12       5.17531e-01       4.04331e-02       5.17531e-01      
 2.70000e-01       8.37925e-09       2.72838e-10       1.19378e-14       8.01473e-12       5.17531e-01       4.05031e-02       5.17531e-01      
 2.79000e-01       1.09250e-08       3.59231e-10       1.22816e-14       1.05384e-11       5.17531e-01       4.05942e-02       5.17531e-01      
 2.88000e-01       1.41837e-08       4.71625e-10       1.26735e-14       1.38114e-11       5.17531e-01       4.07121e-02       5.17531e-01      
 2.97000e-01       1.83270e-08       6.17188e-10       1.31158e-14       1.80336e-11       5.17531e-01       4.08638e-02       5.17531e-01      
 3.06000e-01       2.35566e-08       8.04766e-10       1.36102e-14       2.34473e-11       5.17531e-01       4.10576e-02       5.17531e-01      
 3.15000e-01       3.01051e-08       1.04516e-09       1.41572e-14       3.03414e-11       5.17531e-01       4.13035e-02       5.17531e-01      
 3.24000e-01       3.82353e-08       1.35140e-09       1.47570e-14       3.90548e-11       5.17531e-01       4.16127e-02       5.17531e-01      
 3.33000e-01       4.82385e-08       1.73901e-09       1.54086e-14       4.99770e-11       5.17531e-01       4.19979e-02       5.17531e-01      
 3.42000e-01       6.04299e-08       2.22626e-09       1.61100e-14       6.35457e-11       5.17531e-01       4.24727e-02       5.17531e-01      
 3.51000e-01       7.51425e-08       2.83431e-09       1.68585e-14       8.02417e-11       5.17531e-01       4.30517e-02       5.17531e-01      
 3.60000e-01       9.27198e-08       3.58742e-09       1.76506e-14       1.00580e-10       5.17531e-01       4.37492e-02       5.17531e-01      
 3.69000e-01       1.13507e-07       4.51290e-09       1.84818e-14       1.25099e-10       5.17531e-01       4.45795e-02       5.17531e-01      
 3.78000e-01       1.37842e-07       5.64119e-09       1.93470e-14       1.54344e-10       5.17531e-01       4.55553e-02       5.17531e-01      
 3.87000e-01       1.66051e-07       7.00568e-09       2.02408e-14       1.88858e-10       5.17531e-01       4.66880e-02       5.17531e-01      
 3.96000e-01       1.98444e-07       8.64266e-09       2.11571e-14       2.29167e-10       5.17531e-01       4.79866e-02       5.17531e-01      
 4.05000e-01       2.35319e-07       1.05911e-08       2.20897e-14       2.75774e-10       5.17531e-01       4.94580e-02       5.17531e-01      
 4.14000e-01       2.76969e-07       1.28927e-08       2.30322e-14       3.29150e-10       5.17531e-01       5.11067e-02       5.17531e-01      
 4.23000e-01       3.23698e-07       1.55918e-08       2.39783e-14       3.89744e-10       5.17531e-01       5.29354e-02       5.17531e-01      
 4.32000e-01       3.75830e-07       1.87355e-08       2.49219e-14       4.57978e-10       5.17531e-01       5.49452e-02       5.17531e-01      
 4.41000e-01       4.33728e-07       2.23740e-08       2.58572e-14       5.34265e-10       5.17531e-01       5.71359e-02       5.17531e-01      
 4.50000e-01       4.97796e-07       2.65611e-08       2.67788e-14       6.19012e-10       5.17531e-01       5.95071e-02       5.17531e-01      
 4.59000e-01       5.68486e-07       3.13542e-08       2.76820e-14       7.12632e-10       5.17531e-01       6.20578e-02       5.17531e-01      
 4.68000e-01       6.46288e-07       3.68152e-08       2.85624e-14       8.15551e-10       5.17531e-01       6.47873e-02       5.17531e-01      
 4.77000e-01       7.31717e-07       4.30103e-08       2.94164e-14       9.28212e-10       5.17531e-01       6.76950e-02       5.17531e-01      
 4.86000e-01       8.25302e-07       5.00106e-08       3.02410e-14       1.05108e-09       5.17531e-01       7.07807e-02       5.17531e-01      
 4.95000e-01       9.27556e-07       5.78917e-08       3.10338e-14       1.18462e-09       5.17531e-01       7.40443e-02       5.17531e-01      
 5.04000e-01       1.03896e-06       6.67340e-08       3.17929e-14       1.32934e-09       5.17531e-01       7.74856e-02       5.17531e-01      
 5.13000e-01       1.15996e-06       7.66218e-08       3.25174e-14       1.48572e-09       5.17531e-01       8.11045e-02       5.17531e-01      
 5.22000e-01       1.29090e-06       8.76431e-08       3.32063e-14       1.65428e-09       5.17531e-01       8.49008e-02       5.17531e-01      
 5.31000e-01       1.43207e-06       9.98887e-08       3.38595e-14       1.83550e-09       5.17531e-01       8.88736e-02       5.17531e-01      
 5.40000e-01       1.58364e-06       1.13452e-07       3.44771e-14       2.02985e-09       5.17531e-01       9.30217e-02       5.17531e-01      
 5.49000e-01       1.74571e-06       1.28426e-07       3.50597e-14       2.23782e-09       5.17531e-01       9.73432e-02       5.17531e-01      
 5.58000e-01       1.91824e-06       1.44906e-07       3.56082e-14       2.45982e-09       5.17531e-01       1.01836e-01       5.17531e-01      
 5.67000e-01       2.10111e-06       1.62985e-07       3.61234e-14       2.69628e-09       5.17531e-01       1.06496e-01       5.17531e-01      
 5.76000e-01       2.29409e-06       1.82756e-07       3.66067e-14       2.94758e-09       5.17531e-01       1.11321e-01       5.17531e-01      
 5.85000e-01       2.49686e-06       2.04308e-07       3.70595e-14       3.21408e-09       5.17531e-01       1.16305e-01       5.17531e-01      
 5.94000e-01       2.70903e-06       2.27728e-07       3.74831e-14       3.49611e-09       5.17531e-01       1.21443e-01       5.17531e-01      
 6.03000e-01       2.93013e-06       2.53097e-07       3.78790e-14       3.79397e-09       5.17531e-01       1.26731e-01       5.17531e-01      
 6.12000e-01       3.15963e-06       2.80495e-07       3.82490e-14       4.10795e-09       5.17531e-01       1.32163e-01       5.17531e-01      
 6.21000e-01       3.39698e-06       3.09994e-07       3.85943e-14       4.43831e-09       5.17531e-01       1.37731e-01       5.17531e-01      
 6.30000e-01       3.64159e-06       3.41663e-07       3.89167e-14       4.78530e-09       5.17531e-01       1.43431e-01       5.17531e-01      
 6.39000e-01       3.89284e-06       3.75563e-07       3.92176e-14       5.14915e-09       5.17531e-01       1.49255e-01       5.17531e-01      
 6.48000e-01       4.15014e-06       4.11752e-07       3.94983e-14       5.53011e-09       5.17531e-01       1.55197e-01       5.17531e-01      
 6.57000e-01       4.41286e-06       4.50282e-07       3.97604e-14       5.92839e-09       5.17531e-01       1.61250e-01       5.17531e-01      
 6.66000e-01       4.68043e-06       4.91198e-07       4.00051e-14       6.34426e-09       5.17531e-01       1.67408e-01       5.17531e-01      
 6.75000e-01       4.95228e-06       5.34542e-07       4.02337e-14       6.77793e-09       5.17531e-01       1.73665e-01       5.17531e-01      
 6.84000e-01       5.22786e-06       5.80350e-07       4.04473e-14       7.22969e-09       5.17531e-01       1.80014e-01       5.17531e-01      
 6.93000e-01       5.50667e-06       6.28653e-07       4.06471e-14       7.69981e-09       5.17531e-01       1.86450e-01       5.17531e-01      
 7.02000e-01       5.78824e-06       6.79479e-07       4.08342e-14       8.18858e-09       5.17531e-01       1.92967e-01       5.17531e-01      
 7.11000e-01       6.07213e-06       7.32849e-07       4.10094e-14       8.69634e-09       5.17531e-01       1.99560e-01       5.17531e-01      
 7.20000e-01       6.35793e-06       7.88783e-07       4.11737e-14       9.22344e-09       5.17531e-01       2.06223e-01       5.17531e-01      
 7.29000e-01       6.64527e-06       8.47296e-07       4.13280e-14       9.77027e-09       5.17531e-01       2.12952e-01       5.17531e-01      
 7.38000e-01       6.93383e-06       9.08401e-07       4.14730e-14       1.03373e-08       5.17531e-01       2.19743e-01       5.17531e-01      
 7.47000e-01       7.22330e-06       9.72108e-07       4.16094e-14       1.09249e-08       5.17531e-01       2.26591e-01       5.17531e-01      
 7.56000e-01       7.51342e-06       1.03842e-06       4.17380e-14       1.15336e-08       5.17531e-01       2.33493e-01       5.17531e-01      
 7.65000e-01       7.80393e-06       1.10735e-06       4.18592e-14       1.21641e-08       5.17531e-01       2.40444e-01       5.17531e-01      
 7.74000e-01       8.09463e-06       1.17889e-06       4.19737e-14       1.28168e-08       5.17531e-01       2.47442e-01       5.17531e-01      
 7.83000e-01       8.38532e-06       1.25305e-06       4.20821e-14       1.34925e-08       5.17531e-01       2.54484e-01       5.17531e-01      
 7.92000e-01       8.67584e-06       1.32983e-06       4.21847e-14       1.41919e-08       5.17531e-01       2.61566e-01       5.17531e-01      
 8.01000e-01       8.96603e-06       1.40922e-06       4.22821e-14       1.49157e-08       5.17531e-01       2.68687e-01       5.17531e-01      
 8.10000e-01       9.25575e-06       1.49122e-06       4.23745e-14       1.56648e-08       5.17531e-01       2.75843e-01       5.17531e-01      
 8.19000e-01       9.54490e-06       1.57582e-06       4.24625e-14       1.64402e-08       5.17531e-01       2.83033e-01       5.17531e-01      
 8.28000e-01       9.83337e-06       1.66302e-06       4.25463e-14       1.72427e-08       5.17531e-01       2.90255e-01       5.17531e-01      
 8.37000e-01       1.01211e-05       1.75282e-06       4.26263e-14       1.80735e-08       5.17531e-01       2.97506e-01       5.17531e-01      
 8.46000e-01       1.04079e-05       1.84520e-06       4.27027e-14       1.89337e-08       5.17531e-01       3.04786e-01       5.17531e-01      
 8.55000e-01       1.06938e-05       1.94016e-06       4.27757e-14       1.98245e-08       5.17531e-01       3.12092e-01       5.17531e-01      
 8.64000e-01       1.09786e-05       2.03768e-06       4.28458e-14       2.07474e-08       5.17531e-01       3.19424e-01       5.17531e-01      
 8.73000e-01       1.12624e-05       2.13777e-06       4.29129e-14       2.17036e-08       5.17531e-01       3.26781e-01       5.17531e-01      
 8.82000e-01       1.15451e-05       2.24040e-06       4.29775e-14       2.26948e-08       5.17531e-01       3.34160e-01       5.17531e-01      
 8.91000e-01       1.18266e-05       2.34558e-06       4.30396e-14       2.37227e-08       5.17531e-01       3.41561e-01       5.17531e-01      
 9.00000e-01       1.21068e-05       2.45328e-06       4.30994e-14       2.47890e-08       5.17531e-01       3.48984e-01       5.17531e-01      
 9.09000e-01       1.23858e-05       2.56350e-06       4.31571e-14       2.58957e-08       5.17531e-01       3.56427e-01       5.17531e-01      
 9.18000e-01       1.26634e-05       2.67622e-06       4.32128e-14       2.70449e-08       5.17531e-01       3.63890e-01       5.17531e-01      
 9.27000e-01       1.29397e-05       2.79143e-06       4.32668e-14       2.82389e-08       5.17531e-01       3.71371e-01       5.17531e-01      
 9.36000e-01       1.32146e-05       2.90913e-06       4.33189e-14       2.94801e-08       5.17531e-01       3.78872e-01       5.17531e-01      
 9.45000e-01       1.34880e-05       3.02929e-06       4.33696e-14       3.07711e-08       5.17531e-01       3.86390e-01       5.17531e-01      
 9.54000e-01       1.37599e-05       3.15191e-06       4.34187e-14       3.21149e-08       5.17531e-01       3.93925e-01       5.17531e-01      
 9.63000e-01       1.40303e-05       3.27697e-06       4.34664e-14       3.35144e-08       5.17531e-01       4.01478e-01       5.17531e-01      
 9.72000e-01       1.42991e-05       3.40445e-06       4.35129e-14       3.49731e-08       5.17531e-01       4.09047e-01       5.17531e-01      
 9.81000e-01       1.45662e-05       3.53434e-06       4.35582e-14       3.64946e-08       5.17531e-01       4.16633e-01       5.17531e-01      
 9.90000e-01       1.48317e-05       3.66664e-06       4.36023e-14       3.80829e-08       5.17531e-01       4.24235e-01       5.17531e-01      
 9.99000e-01       1.50956e-05       3.80131e-06       4.36454e-14       3.97422e-08       5.17531e-01       4.31852e-01       5.17531e-01      
 1.00800e+00       1.53576e-05       3.93835e-06       4.36875e-14       4.14771e-08       5.17531e-01       4.39485e-01       5.17531e-01      
 1.01700e+00       1.56179e-05       4.07774e-06       4.37288e-14       4.32928e-08       5.17531e-01       4.47134e-01       5.17531e-01      
 1.02600e+00       1.58764e-05       4.21947e-06       4.37692e-14       4.51948e-08       5.17531e-01       4.54797e-01       5.17531e-01      
 1.03500e+00       1.61330e-05       4.36351e-06       4.38088e-14       4.71891e-08       5.17531e-01       4.62476e-01       5.17531e-01      
 1.04400e+00       1.63877e-05       4.50986e-06       4.38478e-14       4.92822e-08       5.17531e-01       4.70169e-01       5.17531e-01      
 1.05300e+00       1.66404e-05       4.65848e-06       4.38860e-14       5.14814e-08       5.17531e-01       4.77878e-01       5.17531e-01      
 1.06200e+00       1.68911e-05       4.80938e-06       4.39237e-14       5.37946e-08       5.17531e-01       4.85601e-01       5.17531e-01      
 1.07100e+00       1.71398e-05       4.96252e-06       4.39608e-14       5.62303e-08       5.17531e-01       4.93338e-01       5.17531e-01      
 1.08000e+00       1.73864e-05       5.11789e-06       4.39975e-14       5.87981e-08       5.17531e-01       5.01090e-01       5.17531e-01      
 1.08900e+00       1.76309e-05       5.27547e-06       4.40336e-14       6.15084e-08       5.17531e-01       5.08857e-01       5.17531e-01      
 1.09800e+00       1.78731e-05       5.43523e-06       4.40694e-14       6.43726e-08       5.17531e-01       5.16638e-01       5.17531e-01      
 1.10700e+00       1.81132e-05       5.59717e-06       4.41048e-14       6.74033e-08       5.17531e-01       5.24433e-01       5.17531e-01      
 1.11600e+00       1.83509e-05       5.76127e-06       4.41399e-14       7.06144e-08       5.17531e-01       5.32243e-01       5.17531e-01      
 1.12500e+00       1.85864e-05       5.92748e-06       4.41747e-14       7.40214e-08       5.17531e-01       5.40067e-01       5.17531e-01      
 1.13400e+00       1.88194e-05       6.09581e-06       4.42093e-14       7.76412e-08       5.17531e-01       5.47906e-01       5.17531e-01      
 1.14300e+00       1.90500e-05       6.26623e-06       4.42438e-14       8.14927e-08       5.17531e-01       5.55759e-01       5.17531e-01      
 1.15200e+00       1.92781e-05       6.43871e-06       4.42781e-14       8.55968e-08       5.17531e-01       5.63626e-01       5.17531e-01      
 1.16100e+00       1.95037e-05       6.61323e-06       4.43123e-14       8.99766e-08       5.17531e-01       5.71508e-01       5.17531e-01      
 1.17000e+00       1.97267e-05       6.78976e-06       4.43465e-14       9.46579e-08       5.17531e-01       5.79404e-01       5.17531e-01      
 1.17900e+00       1.99470e-05       6.96830e-06       4.43806e-14       9.96695e-08       5.17531e-01       5.87314e-01       5.17531e-01      
 1.18800e+00       2.01645e-05       7.14880e-06       4.44149e-14       1.05043e-07       5.17531e-01       5.95239e-01       5.17531e-01      
 1.19700e+00       2.03793e-05       7.33125e-06       4.44492e-14       1.10815e-07       5.17531e-01       6.03179e-01       5.17531e-01      
 1.20600e+00       2.05912e-05       7.51562e-06       4.44837e-14       1.17025e-07       5.17531e-01       6.11133e-01       5.17531e-01      
 1.21500e+00       2.08002e-05       7.70188e-06       4.45183e-14       1.23717e-07       5.17531e-01       6.19101e-01       5.17531e-01      
