
dc (V)            getData("M0:gm    getData("M0:id    getData("M0:cg    getData("M0:gd    getData("M0:vt    getData("M0:vd    getData("M0:vt

 0.00000e+00       9.84156e-13       4.91051e-14       3.59158e-15       8.18382e-16       4.86425e-01       3.93914e-02       4.86425e-01      
 9.00000e-03       1.31970e-12       5.85131e-14       3.57690e-15       1.09754e-15       4.86425e-01       3.93914e-02       4.86425e-01      
 1.80000e-02       1.76954e-12       7.15277e-14       3.56285e-15       1.47187e-15       4.86425e-01       3.93915e-02       4.86425e-01      
 2.70000e-02       2.37255e-12       8.93356e-14       3.54946e-15       1.97377e-15       4.86425e-01       3.93915e-02       4.86425e-01      
 3.60000e-02       3.18080e-12       1.13531e-13       3.53677e-15       2.64667e-15       4.86425e-01       3.93916e-02       4.86425e-01      
 4.50000e-02       4.26400e-12       1.46252e-13       3.52486e-15       3.54877e-15       4.86425e-01       3.93917e-02       4.86425e-01      
 5.40000e-02       5.71545e-12       1.90367e-13       3.51379e-15       4.75800e-15       4.86425e-01       3.93918e-02       4.86425e-01      
 6.30000e-02       7.66001e-12       2.49721e-13       3.50367e-15       6.37873e-15       4.86425e-01       3.93920e-02       4.86425e-01      
 7.20000e-02       1.02646e-11       3.29462e-13       3.49460e-15       8.55069e-15       4.86425e-01       3.93923e-02       4.86425e-01      
 8.10000e-02       1.37525e-11       4.36485e-13       3.48673e-15       1.14609e-14       4.86425e-01       3.93926e-02       4.86425e-01      
 9.00000e-02       1.84219e-11       5.80015e-13       3.48025e-15       1.53595e-14       4.86425e-01       3.93931e-02       4.86425e-01      
 9.90000e-02       2.46707e-11       7.72391e-13       3.47538e-15       2.05811e-14       4.86425e-01       3.93937e-02       4.86425e-01      
 1.08000e-01       3.30300e-11       1.03011e-12       3.47236e-15       2.75727e-14       4.86425e-01       3.93945e-02       4.86425e-01      
 1.17000e-01       4.42072e-11       1.37519e-12       3.47153e-15       3.69313e-14       4.86425e-01       3.93955e-02       4.86425e-01      
 1.26000e-01       5.91424e-11       1.83705e-12       3.47318e-15       4.94538e-14       4.86425e-01       3.93970e-02       4.86425e-01      
 1.35000e-01       7.90840e-11       2.45486e-12       3.47772e-15       6.62014e-14       4.86425e-01       3.93989e-02       4.86425e-01      
 1.44000e-01       1.05692e-10       3.28083e-12       3.48582e-15       8.85878e-14       4.86425e-01       3.94014e-02       4.86425e-01      
 1.53000e-01       1.41162e-10       4.38440e-12       3.49808e-15       1.18493e-13       4.86425e-01       3.94049e-02       4.86425e-01      
 1.62000e-01       1.88395e-10       5.85781e-12       3.51522e-15       1.58413e-13       4.86425e-01       3.94094e-02       4.86425e-01      
 1.71000e-01       2.51216e-10       7.82341e-12       3.53807e-15       2.11655e-13       4.86425e-01       3.94155e-02       4.86425e-01      
 1.80000e-01       3.34646e-10       1.04431e-11       3.56753e-15       2.82596e-13       4.86425e-01       3.94236e-02       4.86425e-01      
 1.89000e-01       4.45258e-10       1.39308e-11       3.60462e-15       3.77004e-13       4.86425e-01       3.94344e-02       4.86425e-01      
 1.98000e-01       5.91622e-10       1.85680e-11       3.65046e-15       5.02469e-13       4.86425e-01       3.94488e-02       4.86425e-01      
 2.07000e-01       7.84851e-10       2.47246e-11       3.70621e-15       6.68934e-13       4.86425e-01       3.94678e-02       4.86425e-01      
 2.16000e-01       1.03928e-09       3.28844e-11       3.77310e-15       8.89372e-13       4.86425e-01       3.94930e-02       4.86425e-01      
 2.25000e-01       1.37328e-09       4.36777e-11       3.85239e-15       1.18063e-12       4.86425e-01       3.95263e-02       4.86425e-01      
 2.34000e-01       1.81021e-09       5.79219e-11       3.94527e-15       1.56443e-12       4.86425e-01       3.95702e-02       4.86425e-01      
 2.43000e-01       2.37954e-09       7.66716e-11       4.05290e-15       2.06865e-12       4.86425e-01       3.96278e-02       4.86425e-01      
 2.52000e-01       3.11807e-09       1.01278e-10       4.17631e-15       2.72870e-12       4.86425e-01       3.97031e-02       4.86425e-01      
 2.61000e-01       4.07129e-09       1.33463e-10       4.31636e-15       3.58918e-12       4.86425e-01       3.98013e-02       4.86425e-01      
 2.70000e-01       5.29471e-09       1.75402e-10       4.47372e-15       4.70563e-12       4.86425e-01       3.99285e-02       4.86425e-01      
 2.79000e-01       6.85522e-09       2.29818e-10       4.64880e-15       6.14634e-12       4.86425e-01       4.00923e-02       4.86425e-01      
 2.88000e-01       8.83224e-09       3.00095e-10       4.84174e-15       7.99403e-12       4.86425e-01       4.03021e-02       4.86425e-01      
 2.97000e-01       1.13186e-08       3.90391e-10       5.05239e-15       1.03472e-11       4.86425e-01       4.05687e-02       4.86425e-01      
 3.06000e-01       1.44207e-08       5.05760e-10       5.28027e-15       1.33209e-11       4.86425e-01       4.09045e-02       4.86425e-01      
 3.15000e-01       1.82588e-08       6.52277e-10       5.52462e-15       1.70466e-11       4.86425e-01       4.13237e-02       4.86425e-01      
 3.24000e-01       2.29649e-08       8.37156e-10       5.78437e-15       2.16707e-11       4.86425e-01       4.18418e-02       4.86425e-01      
 3.33000e-01       2.86817e-08       1.06885e-09       6.05818e-15       2.73521e-11       4.86425e-01       4.24748e-02       4.86425e-01      
 3.42000e-01       3.55585e-08       1.35712e-09       6.34446e-15       3.42575e-11       4.86425e-01       4.32394e-02       4.86425e-01      
 3.51000e-01       4.37470e-08       1.71309e-09       6.64143e-15       4.25565e-11       4.86425e-01       4.41516e-02       4.86425e-01      
 3.60000e-01       5.33967e-08       2.14926e-09       6.94710e-15       5.24151e-11       4.86425e-01       4.52260e-02       4.86425e-01      
 3.69000e-01       6.46495e-08       2.67942e-09       7.25943e-15       6.39894e-11       4.86425e-01       4.64755e-02       4.86425e-01      
 3.78000e-01       7.76362e-08       3.31861e-09       7.57625e-15       7.74202e-11       4.86425e-01       4.79104e-02       4.86425e-01      
 3.87000e-01       9.24743e-08       4.08297e-09       7.89543e-15       9.28293e-11       4.86425e-01       4.95380e-02       4.86425e-01      
 3.96000e-01       1.09269e-07       4.98965e-09       8.21486e-15       1.10317e-10       4.86425e-01       5.13628e-02       4.86425e-01      
 4.05000e-01       1.28118e-07       6.05671e-09       8.53251e-15       1.29962e-10       4.86425e-01       5.33869e-02       4.86425e-01      
 4.14000e-01       1.49116e-07       7.30307e-09       8.84649e-15       1.51827e-10       4.86425e-01       5.56098e-02       4.86425e-01      
 4.23000e-01       1.72360e-07       8.74851e-09       9.15506e-15       1.75956e-10       4.86425e-01       5.80300e-02       4.86425e-01      
 4.32000e-01       1.97957e-07       1.04137e-08       9.45667e-15       2.02386e-10       4.86425e-01       6.06446e-02       4.86425e-01      
 4.41000e-01       2.26023e-07       1.23204e-08       9.74997e-15       2.31144e-10       4.86425e-01       6.34503e-02       4.86425e-01      
 4.50000e-01       2.56688e-07       1.44913e-08       1.00338e-14       2.62256e-10       4.86425e-01       6.64438e-02       4.86425e-01      
 4.59000e-01       2.90085e-07       1.69505e-08       1.03073e-14       2.95748e-10       4.86425e-01       6.96222e-02       4.86425e-01      
 4.68000e-01       3.26354e-07       1.97231e-08       1.05698e-14       3.31646e-10       4.86425e-01       7.29824e-02       4.86425e-01      
 4.77000e-01       3.65626e-07       2.28357e-08       1.08206e-14       3.69975e-10       4.86425e-01       7.65220e-02       4.86425e-01      
 4.86000e-01       4.08024e-07       2.63157e-08       1.10595e-14       4.10764e-10       4.86425e-01       8.02388e-02       4.86425e-01      
 4.95000e-01       4.53647e-07       3.01919e-08       1.12864e-14       4.54039e-10       4.86425e-01       8.41304e-02       4.86425e-01      
 5.04000e-01       5.02576e-07       3.44936e-08       1.15012e-14       4.99825e-10       4.86425e-01       8.81947e-02       4.86425e-01      
 5.13000e-01       5.54856e-07       3.92508e-08       1.17040e-14       5.48142e-10       4.86425e-01       9.24292e-02       4.86425e-01      
 5.22000e-01       6.10507e-07       4.44938e-08       1.18951e-14       5.99008e-10       4.86425e-01       9.68311e-02       4.86425e-01      
 5.31000e-01       6.69510e-07       5.02528e-08       1.20748e-14       6.52435e-10       4.86425e-01       1.01397e-01       4.86425e-01      
 5.40000e-01       7.31817e-07       5.65578e-08       1.22434e-14       7.08426e-10       4.86425e-01       1.06124e-01       4.86425e-01      
 5.49000e-01       7.97349e-07       6.34382e-08       1.24014e-14       7.66981e-10       4.86425e-01       1.11008e-01       4.86425e-01      
 5.58000e-01       8.65996e-07       7.09226e-08       1.25493e-14       8.28091e-10       4.86425e-01       1.16044e-01       4.86425e-01      
 5.67000e-01       9.37625e-07       7.90384e-08       1.26876e-14       8.91742e-10       4.86425e-01       1.21227e-01       4.86425e-01      
 5.76000e-01       1.01208e-06       8.78118e-08       1.28168e-14       9.57912e-10       4.86425e-01       1.26553e-01       4.86425e-01      
 5.85000e-01       1.08920e-06       9.72673e-08       1.29374e-14       1.02658e-09       4.86425e-01       1.32015e-01       4.86425e-01      
 5.94000e-01       1.16878e-06       1.07428e-07       1.30499e-14       1.09770e-09       4.86425e-01       1.37608e-01       4.86425e-01      
 6.03000e-01       1.25066e-06       1.18316e-07       1.31549e-14       1.17125e-09       4.86425e-01       1.43325e-01       4.86425e-01      
 6.12000e-01       1.33462e-06       1.29950e-07       1.32528e-14       1.24719e-09       4.86425e-01       1.49161e-01       4.86425e-01      
 6.21000e-01       1.42048e-06       1.42348e-07       1.33441e-14       1.32548e-09       4.86425e-01       1.55111e-01       4.86425e-01      
 6.30000e-01       1.50804e-06       1.55527e-07       1.34293e-14       1.40608e-09       4.86425e-01       1.61166e-01       4.86425e-01      
 6.39000e-01       1.59712e-06       1.69501e-07       1.35089e-14       1.48894e-09       4.86425e-01       1.67323e-01       4.86425e-01      
 6.48000e-01       1.68754e-06       1.84283e-07       1.35832e-14       1.57402e-09       4.86425e-01       1.73574e-01       4.86425e-01      
 6.57000e-01       1.77913e-06       1.99884e-07       1.36525e-14       1.66127e-09       4.86425e-01       1.79915e-01       4.86425e-01      
 6.66000e-01       1.87173e-06       2.16314e-07       1.37174e-14       1.75066e-09       4.86425e-01       1.86340e-01       4.86425e-01      
 6.75000e-01       1.96520e-06       2.33581e-07       1.37781e-14       1.84215e-09       4.86425e-01       1.92844e-01       4.86425e-01      
 6.84000e-01       2.05940e-06       2.51693e-07       1.38350e-14       1.93569e-09       4.86425e-01       1.99422e-01       4.86425e-01      
 6.93000e-01       2.15420e-06       2.70655e-07       1.38882e-14       2.03126e-09       4.86425e-01       2.06069e-01       4.86425e-01      
 7.02000e-01       2.24950e-06       2.90473e-07       1.39382e-14       2.12881e-09       4.86425e-01       2.12781e-01       4.86425e-01      
 7.11000e-01       2.34518e-06       3.11150e-07       1.39852e-14       2.22831e-09       4.86425e-01       2.19555e-01       4.86425e-01      
 7.20000e-01       2.44116e-06       3.32690e-07       1.40294e-14       2.32974e-09       4.86425e-01       2.26385e-01       4.86425e-01      
 7.29000e-01       2.53735e-06       3.55094e-07       1.40709e-14       2.43306e-09       4.86425e-01       2.33270e-01       4.86425e-01      
 7.38000e-01       2.63369e-06       3.78365e-07       1.41101e-14       2.53826e-09       4.86425e-01       2.40204e-01       4.86425e-01      
 7.47000e-01       2.73009e-06       4.02503e-07       1.41471e-14       2.64531e-09       4.86425e-01       2.47187e-01       4.86425e-01      
 7.56000e-01       2.82652e-06       4.27509e-07       1.41821e-14       2.75419e-09       4.86425e-01       2.54214e-01       4.86425e-01      
 7.65000e-01       2.92290e-06       4.53382e-07       1.42152e-14       2.86488e-09       4.86425e-01       2.61282e-01       4.86425e-01      
 7.74000e-01       3.01920e-06       4.80122e-07       1.42466e-14       2.97738e-09       4.86425e-01       2.68391e-01       4.86425e-01      
 7.83000e-01       3.11538e-06       5.07729e-07       1.42763e-14       3.09166e-09       4.86425e-01       2.75538e-01       4.86425e-01      
 7.92000e-01       3.21140e-06       5.36200e-07       1.43046e-14       3.20772e-09       4.86425e-01       2.82720e-01       4.86425e-01      
 8.01000e-01       3.30723e-06       5.65534e-07       1.43315e-14       3.32556e-09       4.86425e-01       2.89935e-01       4.86425e-01      
 8.10000e-01       3.40284e-06       5.95730e-07       1.43571e-14       3.44516e-09       4.86425e-01       2.97184e-01       4.86425e-01      
 8.19000e-01       3.49821e-06       6.26785e-07       1.43816e-14       3.56653e-09       4.86425e-01       3.04462e-01       4.86425e-01      
 8.28000e-01       3.59330e-06       6.58697e-07       1.44049e-14       3.68966e-09       4.86425e-01       3.11771e-01       4.86425e-01      
 8.37000e-01       3.68811e-06       6.91464e-07       1.44273e-14       3.81456e-09       4.86425e-01       3.19107e-01       4.86425e-01      
 8.46000e-01       3.78261e-06       7.25082e-07       1.44487e-14       3.94122e-09       4.86425e-01       3.26471e-01       4.86425e-01      
 8.55000e-01       3.87678e-06       7.59549e-07       1.44692e-14       4.06965e-09       4.86425e-01       3.33861e-01       4.86425e-01      
 8.64000e-01       3.97062e-06       7.94863e-07       1.44889e-14       4.19986e-09       4.86425e-01       3.41276e-01       4.86425e-01      
 8.73000e-01       4.06410e-06       8.31019e-07       1.45078e-14       4.33186e-09       4.86425e-01       3.48715e-01       4.86425e-01      
 8.82000e-01       4.15721e-06       8.68014e-07       1.45260e-14       4.46566e-09       4.86425e-01       3.56178e-01       4.86425e-01      
 8.91000e-01       4.24994e-06       9.05846e-07       1.45435e-14       4.60126e-09       4.86425e-01       3.63664e-01       4.86425e-01      
 9.00000e-01       4.34227e-06       9.44511e-07       1.45604e-14       4.73868e-09       4.86425e-01       3.71173e-01       4.86425e-01      
 9.09000e-01       4.43420e-06       9.84005e-07       1.45768e-14       4.87793e-09       4.86425e-01       3.78703e-01       4.86425e-01      
 9.18000e-01       4.52571e-06       1.02432e-06       1.45925e-14       5.01904e-09       4.86425e-01       3.86255e-01       4.86425e-01      
 9.27000e-01       4.61678e-06       1.06546e-06       1.46078e-14       5.16201e-09       4.86425e-01       3.93828e-01       4.86425e-01      
 9.36000e-01       4.70742e-06       1.10742e-06       1.46226e-14       5.30687e-09       4.86425e-01       4.01422e-01       4.86425e-01      
 9.45000e-01       4.79760e-06       1.15019e-06       1.46369e-14       5.45363e-09       4.86425e-01       4.09036e-01       4.86425e-01      
 9.54000e-01       4.88732e-06       1.19378e-06       1.46508e-14       5.60233e-09       4.86425e-01       4.16670e-01       4.86425e-01      
 9.63000e-01       4.97656e-06       1.23816e-06       1.46643e-14       5.75297e-09       4.86425e-01       4.24324e-01       4.86425e-01      
 9.72000e-01       5.06531e-06       1.28335e-06       1.46773e-14       5.90559e-09       4.86425e-01       4.31998e-01       4.86425e-01      
 9.81000e-01       5.15357e-06       1.32933e-06       1.46901e-14       6.06020e-09       4.86425e-01       4.39691e-01       4.86425e-01      
 9.90000e-01       5.24132e-06       1.37611e-06       1.47025e-14       6.21685e-09       4.86425e-01       4.47404e-01       4.86425e-01      
 9.99000e-01       5.32855e-06       1.42367e-06       1.47145e-14       6.37555e-09       4.86425e-01       4.55135e-01       4.86425e-01      
 1.00800e+00       5.41525e-06       1.47202e-06       1.47262e-14       6.53634e-09       4.86425e-01       4.62886e-01       4.86425e-01      
 1.01700e+00       5.50141e-06       1.52114e-06       1.47377e-14       6.69924e-09       4.86425e-01       4.70656e-01       4.86425e-01      
 1.02600e+00       5.58701e-06       1.57104e-06       1.47489e-14       6.86430e-09       4.86425e-01       4.78444e-01       4.86425e-01      
 1.03500e+00       5.67205e-06       1.62171e-06       1.47597e-14       7.03153e-09       4.86425e-01       4.86251e-01       4.86425e-01      
 1.04400e+00       5.75652e-06       1.67313e-06       1.47704e-14       7.20099e-09       4.86425e-01       4.94077e-01       4.86425e-01      
 1.05300e+00       5.84040e-06       1.72532e-06       1.47808e-14       7.37271e-09       4.86425e-01       5.01922e-01       4.86425e-01      
 1.06200e+00       5.92369e-06       1.77826e-06       1.47909e-14       7.54672e-09       4.86425e-01       5.09785e-01       4.86425e-01      
 1.07100e+00       6.00637e-06       1.83194e-06       1.48009e-14       7.72307e-09       4.86425e-01       5.17668e-01       4.86425e-01      
 1.08000e+00       6.08843e-06       1.88637e-06       1.48106e-14       7.90180e-09       4.86425e-01       5.25568e-01       4.86425e-01      
 1.08900e+00       6.16987e-06       1.94153e-06       1.48201e-14       8.08295e-09       4.86425e-01       5.33488e-01       4.86425e-01      
 1.09800e+00       6.25067e-06       1.99742e-06       1.48294e-14       8.26658e-09       4.86425e-01       5.41426e-01       4.86425e-01      
 1.10700e+00       6.33081e-06       2.05404e-06       1.48385e-14       8.45272e-09       4.86425e-01       5.49383e-01       4.86425e-01      
 1.11600e+00       6.41031e-06       2.11137e-06       1.48475e-14       8.64143e-09       4.86425e-01       5.57358e-01       4.86425e-01      
 1.12500e+00       6.48913e-06       2.16942e-06       1.48562e-14       8.83276e-09       4.86425e-01       5.65353e-01       4.86425e-01      
 1.13400e+00       6.56727e-06       2.22817e-06       1.48648e-14       9.02676e-09       4.86425e-01       5.73366e-01       4.86425e-01      
 1.14300e+00       6.64473e-06       2.28762e-06       1.48733e-14       9.22350e-09       4.86425e-01       5.81398e-01       4.86425e-01      
 1.15200e+00       6.72149e-06       2.34777e-06       1.48815e-14       9.42302e-09       4.86425e-01       5.89450e-01       4.86425e-01      
 1.16100e+00       6.79755e-06       2.40861e-06       1.48897e-14       9.62539e-09       4.86425e-01       5.97520e-01       4.86425e-01      
 1.17000e+00       6.87289e-06       2.47012e-06       1.48977e-14       9.83067e-09       4.86425e-01       6.05609e-01       4.86425e-01      
 1.17900e+00       6.94750e-06       2.53231e-06       1.49055e-14       1.00389e-08       4.86425e-01       6.13717e-01       4.86425e-01      
 1.18800e+00       7.02139e-06       2.59517e-06       1.49132e-14       1.02502e-08       4.86425e-01       6.21845e-01       4.86425e-01      
 1.19700e+00       7.09453e-06       2.65869e-06       1.49208e-14       1.04647e-08       4.86425e-01       6.29992e-01       4.86425e-01      
 1.20600e+00       7.16693e-06       2.72287e-06       1.49282e-14       1.06823e-08       4.86425e-01       6.38158e-01       4.86425e-01      
 1.21500e+00       7.23857e-06       2.78769e-06       1.49355e-14       1.09032e-08       4.86425e-01       6.46343e-01       4.86425e-01      
