
dc (V)            getData("M0:gm    getData("M0:id    getData("M0:cg    getData("M0:gd    getData("M0:vt    getData("M0:vd    getData("M0:vt

 0.00000e+00       1.69992e-12       7.36289e-14       9.47431e-15       1.71533e-15       5.18354e-01       4.03214e-02       5.18354e-01      
 9.00000e-03       2.27879e-12       9.14061e-14       9.43157e-15       2.29964e-15       5.18354e-01       4.03214e-02       5.18354e-01      
 1.80000e-02       3.05464e-12       1.15236e-13       9.39025e-15       3.08291e-15       5.18354e-01       4.03214e-02       5.18354e-01      
 2.70000e-02       4.09445e-12       1.47179e-13       9.35038e-15       4.13283e-15       5.18354e-01       4.03215e-02       5.18354e-01      
 3.60000e-02       5.48791e-12       1.89994e-13       9.31200e-15       5.54011e-15       5.18354e-01       4.03215e-02       5.18354e-01      
 4.50000e-02       7.35510e-12       2.47379e-13       9.27517e-15       7.42626e-15       5.18354e-01       4.03216e-02       5.18354e-01      
 5.40000e-02       9.85683e-12       3.24285e-13       9.23997e-15       9.95404e-15       5.18354e-01       4.03216e-02       5.18354e-01      
 6.30000e-02       1.32083e-11       4.27344e-13       9.20651e-15       1.33414e-14       5.18354e-01       4.03217e-02       5.18354e-01      
 7.20000e-02       1.76974e-11       5.65437e-13       9.17493e-15       1.78803e-14       5.18354e-01       4.03219e-02       5.18354e-01      
 8.10000e-02       2.37092e-11       7.50452e-13       9.14539e-15       2.39614e-14       5.18354e-01       4.03220e-02       5.18354e-01      
 9.00000e-02       3.17587e-11       9.98299e-13       9.11811e-15       3.21077e-14       5.18354e-01       4.03223e-02       5.18354e-01      
 9.90000e-02       4.25337e-11       1.33026e-12       9.09337e-15       4.30186e-14       5.18354e-01       4.03226e-02       5.18354e-01      
 1.08000e-01       5.69530e-11       1.77481e-12       9.07150e-15       5.76296e-14       5.18354e-01       4.03230e-02       5.18354e-01      
 1.17000e-01       7.62424e-11       2.36999e-12       9.05291e-15       7.71913e-14       5.18354e-01       4.03235e-02       5.18354e-01      
 1.26000e-01       1.02036e-10       3.16663e-12       9.03810e-15       1.03374e-13       5.18354e-01       4.03243e-02       5.18354e-01      
 1.35000e-01       1.36512e-10       4.23262e-12       9.02769e-15       1.38408e-13       5.18354e-01       4.03252e-02       5.18354e-01      
 1.44000e-01       1.82566e-10       5.65849e-12       9.02241e-15       1.85268e-13       5.18354e-01       4.03266e-02       5.18354e-01      
 1.53000e-01       2.44045e-10       7.56496e-12       9.02315e-15       2.47920e-13       5.18354e-01       4.03283e-02       5.18354e-01      
 1.62000e-01       3.26031e-10       1.01126e-11       9.03045e-15       3.31639e-13       5.18354e-01       4.03307e-02       5.18354e-01      
 1.71000e-01       4.35276e-10       1.35151e-11       9.04608e-15       4.43436e-13       5.18354e-01       4.03338e-02       5.18354e-01      
 1.80000e-01       5.80688e-10       1.80558e-11       9.07151e-15       5.92619e-13       5.18354e-01       4.03380e-02       5.18354e-01      
 1.89000e-01       7.73991e-10       2.41108e-11       9.10842e-15       7.91521e-13       5.18354e-01       4.03436e-02       5.18354e-01      
 1.98000e-01       1.03057e-09       3.21770e-11       9.15878e-15       1.05644e-12       5.18354e-01       4.03510e-02       5.18354e-01      
 2.07000e-01       1.37055e-09       4.29106e-11       9.22479e-15       1.40887e-12       5.18354e-01       4.03609e-02       5.18354e-01      
 2.16000e-01       1.82011e-09       5.71749e-11       9.30892e-15       1.87707e-12       5.18354e-01       4.03741e-02       5.18354e-01      
 2.25000e-01       2.41317e-09       7.61022e-11       9.41387e-15       2.49803e-12       5.18354e-01       4.03915e-02       5.18354e-01      
 2.34000e-01       3.19337e-09       1.01172e-10       9.54257e-15       3.32001e-12       5.18354e-01       4.04146e-02       5.18354e-01      
 2.43000e-01       4.21652e-09       1.34310e-10       9.69809e-15       4.40566e-12       5.18354e-01       4.04450e-02       5.18354e-01      
 2.52000e-01       5.55337e-09       1.78009e-10       9.88358e-15       5.83576e-12       5.18354e-01       4.04851e-02       5.18354e-01      
 2.61000e-01       7.29284e-09       2.35477e-10       1.01022e-14       7.71387e-12       5.18354e-01       4.05377e-02       5.18354e-01      
 2.70000e-01       9.54545e-09       3.10817e-10       1.03570e-14       1.01716e-11       5.18354e-01       4.06065e-02       5.18354e-01      
 2.79000e-01       1.24470e-08       4.09239e-10       1.06507e-14       1.33747e-11       5.18354e-01       4.06960e-02       5.18354e-01      
 2.88000e-01       1.61623e-08       5.37301e-10       1.09858e-14       1.75298e-11       5.18354e-01       4.08119e-02       5.18354e-01      
 2.97000e-01       2.08880e-08       7.03188e-10       1.13643e-14       2.28911e-11       5.18354e-01       4.09610e-02       5.18354e-01      
 3.06000e-01       2.68553e-08       9.17006e-10       1.17876e-14       2.97673e-11       5.18354e-01       4.11517e-02       5.18354e-01      
 3.15000e-01       3.43313e-08       1.19111e-09       1.22564e-14       3.85271e-11       5.18354e-01       4.13937e-02       5.18354e-01      
 3.24000e-01       4.36183e-08       1.54040e-09       1.27708e-14       4.96031e-11       5.18354e-01       4.16981e-02       5.18354e-01      
 3.33000e-01       5.50517e-08       1.98267e-09       1.33299e-14       6.34932e-11       5.18354e-01       4.20776e-02       5.18354e-01      
 3.42000e-01       6.89951e-08       2.53886e-09       1.39322e-14       8.07580e-11       5.18354e-01       4.25458e-02       5.18354e-01      
 3.51000e-01       8.58337e-08       3.23327e-09       1.45754e-14       1.02014e-10       5.18354e-01       4.31171e-02       5.18354e-01      
 3.60000e-01       1.05965e-07       4.09374e-09       1.52565e-14       1.27922e-10       5.18354e-01       4.38061e-02       5.18354e-01      
 3.69000e-01       1.29790e-07       5.15172e-09       1.59717e-14       1.59172e-10       5.18354e-01       4.46269e-02       5.18354e-01      
 3.78000e-01       1.57702e-07       6.44223e-09       1.67168e-14       1.96469e-10       5.18354e-01       4.55927e-02       5.18354e-01      
 3.87000e-01       1.90079e-07       8.00375e-09       1.74869e-14       2.40510e-10       5.18354e-01       4.67147e-02       5.18354e-01      
 3.96000e-01       2.27282e-07       9.87813e-09       1.82769e-14       2.91971e-10       5.18354e-01       4.80023e-02       5.18354e-01      
 4.05000e-01       2.69657e-07       1.21103e-08       1.90814e-14       3.51497e-10       5.18354e-01       4.94627e-02       5.18354e-01      
 4.14000e-01       3.17543e-07       1.47485e-08       1.98951e-14       4.19694e-10       5.18354e-01       5.11005e-02       5.18354e-01      
 4.23000e-01       3.71289e-07       1.78437e-08       2.07123e-14       4.97131e-10       5.18354e-01       5.29185e-02       5.18354e-01      
 4.32000e-01       4.31267e-07       2.14504e-08       2.15278e-14       5.84346e-10       5.18354e-01       5.49179e-02       5.18354e-01      
 4.41000e-01       4.97890e-07       2.56264e-08       2.23367e-14       6.81859e-10       5.18354e-01       5.70987e-02       5.18354e-01      
 4.50000e-01       5.71622e-07       3.04337e-08       2.31341e-14       7.90182e-10       5.18354e-01       5.94604e-02       5.18354e-01      
 4.59000e-01       6.52979e-07       3.59385e-08       2.39160e-14       9.09830e-10       5.18354e-01       6.20021e-02       5.18354e-01      
 4.68000e-01       7.42523e-07       4.22119e-08       2.46786e-14       1.04134e-09       5.18354e-01       6.47229e-02       5.18354e-01      
 4.77000e-01       8.40848e-07       4.93303e-08       2.54187e-14       1.18525e-09       5.18354e-01       6.76224e-02       5.18354e-01      
 4.86000e-01       9.48562e-07       5.73753e-08       2.61336e-14       1.34215e-09       5.18354e-01       7.07001e-02       5.18354e-01      
 4.95000e-01       1.06626e-06       6.64343e-08       2.68213e-14       1.51262e-09       5.18354e-01       7.39560e-02       5.18354e-01      
 5.04000e-01       1.19451e-06       7.65997e-08       2.74801e-14       1.69729e-09       5.18354e-01       7.73898e-02       5.18354e-01      
 5.13000e-01       1.33381e-06       8.79687e-08       2.81089e-14       1.89677e-09       5.18354e-01       8.10016e-02       5.18354e-01      
 5.22000e-01       1.48460e-06       1.00643e-07       2.87072e-14       2.11168e-09       5.18354e-01       8.47909e-02       5.18354e-01      
 5.31000e-01       1.64719e-06       1.14727e-07       2.92746e-14       2.34265e-09       5.18354e-01       8.87570e-02       5.18354e-01      
 5.40000e-01       1.82180e-06       1.30328e-07       2.98113e-14       2.59027e-09       5.18354e-01       9.28987e-02       5.18354e-01      
 5.49000e-01       2.00855e-06       1.47556e-07       3.03177e-14       2.85512e-09       5.18354e-01       9.72143e-02       5.18354e-01      
 5.58000e-01       2.20741e-06       1.66519e-07       3.07945e-14       3.13775e-09       5.18354e-01       1.01701e-01       5.18354e-01      
 5.67000e-01       2.41825e-06       1.87325e-07       3.12426e-14       3.43867e-09       5.18354e-01       1.06356e-01       5.18354e-01      
 5.76000e-01       2.64080e-06       2.10082e-07       3.16631e-14       3.75838e-09       5.18354e-01       1.11176e-01       5.18354e-01      
 5.85000e-01       2.87471e-06       2.34894e-07       3.20569e-14       4.09732e-09       5.18354e-01       1.16156e-01       5.18354e-01      
 5.94000e-01       3.11953e-06       2.61860e-07       3.24255e-14       4.45591e-09       5.18354e-01       1.21291e-01       5.18354e-01      
 6.03000e-01       3.37472e-06       2.91076e-07       3.27702e-14       4.83451e-09       5.18354e-01       1.26576e-01       5.18354e-01      
 6.12000e-01       3.63968e-06       3.22634e-07       3.30922e-14       5.23350e-09       5.18354e-01       1.32005e-01       5.18354e-01      
 6.21000e-01       3.91376e-06       3.56618e-07       3.33928e-14       5.65318e-09       5.18354e-01       1.37572e-01       5.18354e-01      
 6.30000e-01       4.19628e-06       3.93107e-07       3.36735e-14       6.09389e-09       5.18354e-01       1.43270e-01       5.18354e-01      
 6.39000e-01       4.48654e-06       4.32174e-07       3.39354e-14       6.55591e-09       5.18354e-01       1.49094e-01       5.18354e-01      
 6.48000e-01       4.78382e-06       4.73886e-07       3.41799e-14       7.03953e-09       5.18354e-01       1.55036e-01       5.18354e-01      
 6.57000e-01       5.08743e-06       5.18302e-07       3.44081e-14       7.54505e-09       5.18354e-01       1.61089e-01       5.18354e-01      
 6.66000e-01       5.39669e-06       5.65477e-07       3.46212e-14       8.07275e-09       5.18354e-01       1.67249e-01       5.18354e-01      
 6.75000e-01       5.71093e-06       6.15457e-07       3.48203e-14       8.62294e-09       5.18354e-01       1.73507e-01       5.18354e-01      
 6.84000e-01       6.02952e-06       6.68286e-07       3.50063e-14       9.19595e-09       5.18354e-01       1.79859e-01       5.18354e-01      
 6.93000e-01       6.35187e-06       7.24000e-07       3.51803e-14       9.79211e-09       5.18354e-01       1.86297e-01       5.18354e-01      
 7.02000e-01       6.67743e-06       7.82630e-07       3.53432e-14       1.04118e-08       5.18354e-01       1.92817e-01       5.18354e-01      
 7.11000e-01       7.00569e-06       8.44202e-07       3.54958e-14       1.10554e-08       5.18354e-01       1.99413e-01       5.18354e-01      
 7.20000e-01       7.33617e-06       9.08739e-07       3.56389e-14       1.17234e-08       5.18354e-01       2.06081e-01       5.18354e-01      
 7.29000e-01       7.66845e-06       9.76258e-07       3.57733e-14       1.24163e-08       5.18354e-01       2.12814e-01       5.18354e-01      
 7.38000e-01       8.00213e-06       1.04678e-06       3.58995e-14       1.31345e-08       5.18354e-01       2.19609e-01       5.18354e-01      
 7.47000e-01       8.33687e-06       1.12030e-06       3.60183e-14       1.38786e-08       5.18354e-01       2.26462e-01       5.18354e-01      
 7.56000e-01       8.67234e-06       1.19684e-06       3.61302e-14       1.46494e-08       5.18354e-01       2.33369e-01       5.18354e-01      
 7.65000e-01       9.00827e-06       1.27640e-06       3.62358e-14       1.54474e-08       5.18354e-01       2.40325e-01       5.18354e-01      
 7.74000e-01       9.34440e-06       1.35899e-06       3.63355e-14       1.62734e-08       5.18354e-01       2.47328e-01       5.18354e-01      
 7.83000e-01       9.68051e-06       1.44460e-06       3.64299e-14       1.71282e-08       5.18354e-01       2.54375e-01       5.18354e-01      
 7.92000e-01       1.00164e-05       1.53324e-06       3.65192e-14       1.80127e-08       5.18354e-01       2.61463e-01       5.18354e-01      
 8.01000e-01       1.03519e-05       1.62490e-06       3.66039e-14       1.89278e-08       5.18354e-01       2.68589e-01       5.18354e-01      
 8.10000e-01       1.06868e-05       1.71957e-06       3.66844e-14       1.98747e-08       5.18354e-01       2.75750e-01       5.18354e-01      
 8.19000e-01       1.10210e-05       1.81726e-06       3.67610e-14       2.08543e-08       5.18354e-01       2.82945e-01       5.18354e-01      
 8.28000e-01       1.13545e-05       1.91795e-06       3.68339e-14       2.18679e-08       5.18354e-01       2.90172e-01       5.18354e-01      
 8.37000e-01       1.16870e-05       2.02163e-06       3.69035e-14       2.29168e-08       5.18354e-01       2.97429e-01       5.18354e-01      
 8.46000e-01       1.20184e-05       2.12831e-06       3.69700e-14       2.40025e-08       5.18354e-01       3.04714e-01       5.18354e-01      
 8.55000e-01       1.23488e-05       2.23796e-06       3.70336e-14       2.51263e-08       5.18354e-01       3.12025e-01       5.18354e-01      
 8.64000e-01       1.26779e-05       2.35058e-06       3.70945e-14       2.62900e-08       5.18354e-01       3.19362e-01       5.18354e-01      
 8.73000e-01       1.30058e-05       2.46616e-06       3.71529e-14       2.74953e-08       5.18354e-01       3.26723e-01       5.18354e-01      
 8.82000e-01       1.33324e-05       2.58468e-06       3.72091e-14       2.87440e-08       5.18354e-01       3.34107e-01       5.18354e-01      
 8.91000e-01       1.36575e-05       2.70614e-06       3.72631e-14       3.00383e-08       5.18354e-01       3.41512e-01       5.18354e-01      
 9.00000e-01       1.39812e-05       2.83052e-06       3.73151e-14       3.13803e-08       5.18354e-01       3.48939e-01       5.18354e-01      
 9.09000e-01       1.43034e-05       2.95780e-06       3.73653e-14       3.27724e-08       5.18354e-01       3.56386e-01       5.18354e-01      
 9.18000e-01       1.46240e-05       3.08797e-06       3.74137e-14       3.42171e-08       5.18354e-01       3.63853e-01       5.18354e-01      
 9.27000e-01       1.49430e-05       3.22102e-06       3.74606e-14       3.57172e-08       5.18354e-01       3.71338e-01       5.18354e-01      
 9.36000e-01       1.52603e-05       3.35694e-06       3.75060e-14       3.72756e-08       5.18354e-01       3.78842e-01       5.18354e-01      
 9.45000e-01       1.55760e-05       3.49571e-06       3.75500e-14       3.88955e-08       5.18354e-01       3.86363e-01       5.18354e-01      
 9.54000e-01       1.58898e-05       3.63730e-06       3.75927e-14       4.05805e-08       5.18354e-01       3.93902e-01       5.18354e-01      
 9.63000e-01       1.62019e-05       3.78172e-06       3.76342e-14       4.23341e-08       5.18354e-01       4.01457e-01       5.18354e-01      
 9.72000e-01       1.65121e-05       3.92893e-06       3.76745e-14       4.41605e-08       5.18354e-01       4.09029e-01       5.18354e-01      
 9.81000e-01       1.68204e-05       4.07893e-06       3.77139e-14       4.60640e-08       5.18354e-01       4.16617e-01       5.18354e-01      
 9.90000e-01       1.71267e-05       4.23169e-06       3.77522e-14       4.80494e-08       5.18354e-01       4.24221e-01       5.18354e-01      
 9.99000e-01       1.74311e-05       4.38720e-06       3.77897e-14       5.01218e-08       5.18354e-01       4.31840e-01       5.18354e-01      
 1.00800e+00       1.77334e-05       4.54544e-06       3.78263e-14       5.22868e-08       5.18354e-01       4.39475e-01       5.18354e-01      
 1.01700e+00       1.80336e-05       4.70640e-06       3.78621e-14       5.45505e-08       5.18354e-01       4.47125e-01       5.18354e-01      
 1.02600e+00       1.83317e-05       4.87004e-06       3.78972e-14       5.69195e-08       5.18354e-01       4.54790e-01       5.18354e-01      
 1.03500e+00       1.86276e-05       5.03636e-06       3.79317e-14       5.94010e-08       5.18354e-01       4.62469e-01       5.18354e-01      
 1.04400e+00       1.89212e-05       5.20533e-06       3.79655e-14       6.20029e-08       5.18354e-01       4.70163e-01       5.18354e-01      
 1.05300e+00       1.92126e-05       5.37694e-06       3.79987e-14       6.47337e-08       5.18354e-01       4.77872e-01       5.18354e-01      
 1.06200e+00       1.95017e-05       5.55115e-06       3.80314e-14       6.76028e-08       5.18354e-01       4.85595e-01       5.18354e-01      
 1.07100e+00       1.97883e-05       5.72796e-06       3.80637e-14       7.06206e-08       5.18354e-01       4.93332e-01       5.18354e-01      
 1.08000e+00       2.00725e-05       5.90734e-06       3.80955e-14       7.37982e-08       5.18354e-01       5.01084e-01       5.18354e-01      
 1.08900e+00       2.03542e-05       6.08926e-06       3.81269e-14       7.71480e-08       5.18354e-01       5.08850e-01       5.18354e-01      
 1.09800e+00       2.06334e-05       6.27370e-06       3.81580e-14       8.06836e-08       5.18354e-01       5.16630e-01       5.18354e-01      
 1.10700e+00       2.09099e-05       6.46065e-06       3.81887e-14       8.44200e-08       5.18354e-01       5.24425e-01       5.18354e-01      
 1.11600e+00       2.11838e-05       6.65007e-06       3.82192e-14       8.83736e-08       5.18354e-01       5.32233e-01       5.18354e-01      
 1.12500e+00       2.14549e-05       6.84195e-06       3.82495e-14       9.25626e-08       5.18354e-01       5.40056e-01       5.18354e-01      
 1.13400e+00       2.17233e-05       7.03625e-06       3.82796e-14       9.70071e-08       5.18354e-01       5.47892e-01       5.18354e-01      
 1.14300e+00       2.19889e-05       7.23296e-06       3.83095e-14       1.01729e-07       5.18354e-01       5.55743e-01       5.18354e-01      
 1.15200e+00       2.22515e-05       7.43205e-06       3.83393e-14       1.06754e-07       5.18354e-01       5.63608e-01       5.18354e-01      
 1.16100e+00       2.25112e-05       7.63348e-06       3.83690e-14       1.12108e-07       5.18354e-01       5.71487e-01       5.18354e-01      
 1.17000e+00       2.27678e-05       7.83724e-06       3.83987e-14       1.17822e-07       5.18354e-01       5.79380e-01       5.18354e-01      
 1.17900e+00       2.30213e-05       8.04329e-06       3.84284e-14       1.23929e-07       5.18354e-01       5.87288e-01       5.18354e-01      
 1.18800e+00       2.32717e-05       8.25161e-06       3.84582e-14       1.30468e-07       5.18354e-01       5.95210e-01       5.18354e-01      
 1.19700e+00       2.35187e-05       8.46217e-06       3.84881e-14       1.37479e-07       5.18354e-01       6.03146e-01       5.18354e-01      
 1.20600e+00       2.37625e-05       8.67494e-06       3.85180e-14       1.45010e-07       5.18354e-01       6.11096e-01       5.18354e-01      
 1.21500e+00       2.40028e-05       8.88988e-06       3.85482e-14       1.53113e-07       5.18354e-01       6.19060e-01       5.18354e-01      
