
dc (V)            getData("M0:gm    getData("M0:id    getData("M0:cg    getData("M0:gd    getData("M0:vt    getData("M0:vd    getData("M0:vt

 0.00000e+00       8.18849e-13       4.40220e-14       4.31368e-15       5.79179e-16       4.85701e-01       3.92693e-02       4.85701e-01      
 9.00000e-03       1.09819e-12       5.17009e-14       4.29594e-15       7.76853e-16       4.85701e-01       3.92693e-02       4.85701e-01      
 1.80000e-02       1.47273e-12       6.23986e-14       4.27896e-15       1.04195e-15       4.85701e-01       3.92694e-02       4.85701e-01      
 2.70000e-02       1.97487e-12       7.71020e-14       4.26278e-15       1.39745e-15       4.85701e-01       3.92694e-02       4.85701e-01      
 3.60000e-02       2.64801e-12       9.71378e-14       4.24747e-15       1.87414e-15       4.85701e-01       3.92695e-02       4.85701e-01      
 4.50000e-02       3.55026e-12       1.24287e-13       4.23310e-15       2.51328e-15       4.85701e-01       3.92696e-02       4.85701e-01      
 5.40000e-02       4.75941e-12       1.60938e-13       4.21977e-15       3.37014e-15       4.85701e-01       3.92697e-02       4.85701e-01      
 6.30000e-02       6.37956e-12       2.10294e-13       4.20758e-15       4.51875e-15       4.85701e-01       3.92699e-02       4.85701e-01      
 7.20000e-02       8.54994e-12       2.76646e-13       4.19668e-15       6.05822e-15       4.85701e-01       3.92702e-02       4.85701e-01      
 8.10000e-02       1.14567e-11       3.65741e-13       4.18726e-15       8.12122e-15       4.85701e-01       3.92705e-02       4.85701e-01      
 9.00000e-02       1.53485e-11       4.85268e-13       4.17952e-15       1.08853e-14       4.85701e-01       3.92710e-02       4.85701e-01      
 9.90000e-02       2.05575e-11       6.45517e-13       4.17375e-15       1.45877e-14       4.85701e-01       3.92716e-02       4.85701e-01      
 1.08000e-01       2.75264e-11       8.60240e-13       4.17026e-15       1.95458e-14       4.85701e-01       3.92724e-02       4.85701e-01      
 1.17000e-01       3.68457e-11       1.14781e-12       4.16944e-15       2.61834e-14       4.85701e-01       3.92735e-02       4.85701e-01      
 1.26000e-01       4.92996e-11       1.53275e-12       4.17166e-15       3.50659e-14       4.85701e-01       3.92749e-02       4.85701e-01      
 1.35000e-01       6.59296e-11       2.04775e-12       4.17743e-15       4.69468e-14       4.85701e-01       3.92769e-02       4.85701e-01      
 1.44000e-01       8.81208e-11       2.73635e-12       4.18754e-15       6.28295e-14       4.85701e-01       3.92795e-02       4.85701e-01      
 1.53000e-01       1.17705e-10       3.65647e-12       4.20274e-15       8.40488e-14       4.85701e-01       3.92830e-02       4.85701e-01      
 1.62000e-01       1.57104e-10       4.88509e-12       4.22393e-15       1.12377e-13       4.85701e-01       3.92876e-02       4.85701e-01      
 1.71000e-01       2.09507e-10       6.52427e-12       4.25208e-15       1.50162e-13       4.85701e-01       3.92938e-02       4.85701e-01      
 1.80000e-01       2.79104e-10       8.70910e-12       4.28833e-15       2.00510e-13       4.85701e-01       3.93021e-02       4.85701e-01      
 1.89000e-01       3.71378e-10       1.16180e-11       4.33391e-15       2.67518e-13       4.85701e-01       3.93131e-02       4.85701e-01      
 1.98000e-01       4.93475e-10       1.54859e-11       4.39016e-15       3.56572e-13       4.85701e-01       3.93276e-02       4.85701e-01      
 2.07000e-01       6.54662e-10       2.06212e-11       4.45853e-15       4.74731e-13       4.85701e-01       3.93470e-02       4.85701e-01      
 2.16000e-01       8.66889e-10       2.74274e-11       4.54049e-15       6.31202e-13       4.85701e-01       3.93727e-02       4.85701e-01      
 2.25000e-01       1.14546e-09       3.64302e-11       4.63754e-15       8.37934e-13       4.85701e-01       3.94065e-02       4.85701e-01      
 2.34000e-01       1.50984e-09       4.83111e-11       4.75117e-15       1.11035e-12       4.85701e-01       3.94511e-02       4.85701e-01      
 2.43000e-01       1.98456e-09       6.39490e-11       4.88274e-15       1.46820e-12       4.85701e-01       3.95097e-02       4.85701e-01      
 2.52000e-01       2.60024e-09       8.44702e-11       5.03349e-15       1.93660e-12       4.85701e-01       3.95863e-02       4.85701e-01      
 2.61000e-01       3.39471e-09       1.11308e-10       5.20446e-15       2.54715e-12       4.85701e-01       3.96860e-02       4.85701e-01      
 2.70000e-01       4.41411e-09       1.46274e-10       5.39643e-15       3.33919e-12       4.85701e-01       3.98152e-02       4.85701e-01      
 2.79000e-01       5.71399e-09       1.91636e-10       5.60987e-15       4.36104e-12       4.85701e-01       3.99817e-02       4.85701e-01      
 2.88000e-01       7.36027e-09       2.50207e-10       5.84493e-15       5.67123e-12       4.85701e-01       4.01947e-02       4.85701e-01      
 2.97000e-01       9.42988e-09       3.25444e-10       6.10139e-15       7.33940e-12       4.85701e-01       4.04652e-02       4.85701e-01      
 3.06000e-01       1.20111e-08       4.21548e-10       6.37865e-15       9.44682e-12       4.85701e-01       4.08058e-02       4.85701e-01      
 3.15000e-01       1.52033e-08       5.43564e-10       6.67577e-15       1.20863e-11       4.85701e-01       4.12307e-02       4.85701e-01      
 3.24000e-01       1.91159e-08       6.97479e-10       6.99141e-15       1.53612e-11       4.85701e-01       4.17554e-02       4.85701e-01      
 3.33000e-01       2.38666e-08       8.90304e-10       7.32393e-15       1.93835e-11       4.85701e-01       4.23960e-02       4.85701e-01      
 3.42000e-01       2.95788e-08       1.13014e-09       7.67139e-15       2.42708e-11       4.85701e-01       4.31691e-02       4.85701e-01      
 3.51000e-01       3.63774e-08       1.42619e-09       8.03160e-15       3.01429e-11       4.85701e-01       4.40905e-02       4.85701e-01      
 3.60000e-01       4.43856e-08       1.78882e-09       8.40216e-15       3.71167e-11       4.85701e-01       4.51749e-02       4.85701e-01      
 3.69000e-01       5.37201e-08       2.22943e-09       8.78055e-15       4.53030e-11       4.85701e-01       4.64347e-02       4.85701e-01      
 3.78000e-01       6.44883e-08       2.76046e-09       9.16419e-15       5.48015e-11       4.85701e-01       4.78801e-02       4.85701e-01      
 3.87000e-01       7.67869e-08       3.39525e-09       9.55046e-15       6.56992e-11       4.85701e-01       4.95181e-02       4.85701e-01      
 3.96000e-01       9.07031e-08       4.14799e-09       9.93684e-15       7.80680e-11       4.85701e-01       5.13530e-02       4.85701e-01      
 4.05000e-01       1.06317e-07       5.03361e-09       1.03209e-14       9.19661e-11       4.85701e-01       5.33867e-02       4.85701e-01      
 4.14000e-01       1.23708e-07       6.06773e-09       1.07003e-14       1.07438e-10       4.85701e-01       5.56187e-02       4.85701e-01      
 4.23000e-01       1.42958e-07       7.26673e-09       1.10730e-14       1.24520e-10       4.85701e-01       5.80471e-02       4.85701e-01      
 4.32000e-01       1.64155e-07       8.64772e-09       1.14371e-14       1.43239e-10       4.85701e-01       6.06692e-02       4.85701e-01      
 4.41000e-01       1.87399e-07       1.02287e-08       1.17910e-14       1.63618e-10       4.85701e-01       6.34817e-02       4.85701e-01      
 4.50000e-01       2.12795e-07       1.20285e-08       1.21334e-14       1.85678e-10       4.85701e-01       6.64815e-02       4.85701e-01      
 4.59000e-01       2.40456e-07       1.40670e-08       1.24632e-14       2.09441e-10       4.85701e-01       6.96653e-02       4.85701e-01      
 4.68000e-01       2.70498e-07       1.63652e-08       1.27795e-14       2.34926e-10       4.85701e-01       7.30305e-02       4.85701e-01      
 4.77000e-01       3.03028e-07       1.89449e-08       1.30818e-14       2.62156e-10       4.85701e-01       7.65746e-02       4.85701e-01      
 4.86000e-01       3.38148e-07       2.18291e-08       1.33696e-14       2.91151e-10       4.85701e-01       8.02953e-02       4.85701e-01      
 4.95000e-01       3.75939e-07       2.50414e-08       1.36428e-14       3.21933e-10       4.85701e-01       8.41905e-02       4.85701e-01      
 5.04000e-01       4.16466e-07       2.86061e-08       1.39014e-14       3.54521e-10       4.85701e-01       8.82579e-02       4.85701e-01      
 5.13000e-01       4.59766e-07       3.25481e-08       1.41455e-14       3.88930e-10       4.85701e-01       9.24952e-02       4.85701e-01      
 5.22000e-01       5.05852e-07       3.68924e-08       1.43754e-14       4.25175e-10       4.85701e-01       9.68994e-02       4.85701e-01      
 5.31000e-01       5.54709e-07       4.16641e-08       1.45916e-14       4.63264e-10       4.85701e-01       1.01468e-01       4.85701e-01      
 5.40000e-01       6.06296e-07       4.68878e-08       1.47944e-14       5.03201e-10       4.85701e-01       1.06196e-01       4.85701e-01      
 5.49000e-01       6.60544e-07       5.25879e-08       1.49845e-14       5.44986e-10       4.85701e-01       1.11081e-01       4.85701e-01      
 5.58000e-01       7.17364e-07       5.87879e-08       1.51623e-14       5.88612e-10       4.85701e-01       1.16117e-01       4.85701e-01      
 5.67000e-01       7.76643e-07       6.55105e-08       1.53286e-14       6.34070e-10       4.85701e-01       1.21301e-01       4.85701e-01      
 5.76000e-01       8.38255e-07       7.27773e-08       1.54839e-14       6.81345e-10       4.85701e-01       1.26626e-01       4.85701e-01      
 5.85000e-01       9.02058e-07       8.06086e-08       1.56288e-14       7.30417e-10       4.85701e-01       1.32087e-01       4.85701e-01      
 5.94000e-01       9.67901e-07       8.90234e-08       1.57641e-14       7.81264e-10       4.85701e-01       1.37679e-01       4.85701e-01      
 6.03000e-01       1.03563e-06       9.80394e-08       1.58903e-14       8.33862e-10       4.85701e-01       1.43395e-01       4.85701e-01      
 6.12000e-01       1.10507e-06       1.07673e-07       1.60080e-14       8.88183e-10       4.85701e-01       1.49229e-01       4.85701e-01      
 6.21000e-01       1.17609e-06       1.17938e-07       1.61178e-14       9.44198e-10       4.85701e-01       1.55176e-01       4.85701e-01      
 6.30000e-01       1.24850e-06       1.28850e-07       1.62202e-14       1.00188e-09       4.85701e-01       1.61228e-01       4.85701e-01      
 6.39000e-01       1.32217e-06       1.40418e-07       1.63158e-14       1.06119e-09       4.85701e-01       1.67382e-01       4.85701e-01      
 6.48000e-01       1.39695e-06       1.52655e-07       1.64050e-14       1.12210e-09       4.85701e-01       1.73630e-01       4.85701e-01      
 6.57000e-01       1.47269e-06       1.65569e-07       1.64884e-14       1.18458e-09       4.85701e-01       1.79967e-01       4.85701e-01      
 6.66000e-01       1.54927e-06       1.79169e-07       1.65664e-14       1.24861e-09       4.85701e-01       1.86388e-01       4.85701e-01      
 6.75000e-01       1.62657e-06       1.93461e-07       1.66394e-14       1.31415e-09       4.85701e-01       1.92888e-01       4.85701e-01      
 6.84000e-01       1.70448e-06       2.08452e-07       1.67077e-14       1.38117e-09       4.85701e-01       1.99461e-01       4.85701e-01      
 6.93000e-01       1.78289e-06       2.24146e-07       1.67718e-14       1.44965e-09       4.85701e-01       2.06104e-01       4.85701e-01      
 7.02000e-01       1.86171e-06       2.40547e-07       1.68319e-14       1.51957e-09       4.85701e-01       2.12812e-01       4.85701e-01      
 7.11000e-01       1.94086e-06       2.57660e-07       1.68883e-14       1.59090e-09       4.85701e-01       2.19580e-01       4.85701e-01      
 7.20000e-01       2.02026e-06       2.75486e-07       1.69414e-14       1.66361e-09       4.85701e-01       2.26406e-01       4.85701e-01      
 7.29000e-01       2.09984e-06       2.94027e-07       1.69914e-14       1.73770e-09       4.85701e-01       2.33286e-01       4.85701e-01      
 7.38000e-01       2.17955e-06       3.13285e-07       1.70386e-14       1.81314e-09       4.85701e-01       2.40216e-01       4.85701e-01      
 7.47000e-01       2.25932e-06       3.33261e-07       1.70831e-14       1.88992e-09       4.85701e-01       2.47194e-01       4.85701e-01      
 7.56000e-01       2.33912e-06       3.53955e-07       1.71251e-14       1.96803e-09       4.85701e-01       2.54217e-01       4.85701e-01      
 7.65000e-01       2.41889e-06       3.75366e-07       1.71650e-14       2.04744e-09       4.85701e-01       2.61281e-01       4.85701e-01      
 7.74000e-01       2.49861e-06       3.97496e-07       1.72027e-14       2.12816e-09       4.85701e-01       2.68386e-01       4.85701e-01      
 7.83000e-01       2.57824e-06       4.20342e-07       1.72385e-14       2.21017e-09       4.85701e-01       2.75529e-01       4.85701e-01      
 7.92000e-01       2.65774e-06       4.43905e-07       1.72725e-14       2.29347e-09       4.85701e-01       2.82707e-01       4.85701e-01      
 8.01000e-01       2.73709e-06       4.68182e-07       1.73049e-14       2.37806e-09       4.85701e-01       2.89920e-01       4.85701e-01      
 8.10000e-01       2.81628e-06       4.93172e-07       1.73357e-14       2.46392e-09       4.85701e-01       2.97165e-01       4.85701e-01      
 8.19000e-01       2.89527e-06       5.18875e-07       1.73652e-14       2.55106e-09       4.85701e-01       3.04441e-01       4.85701e-01      
 8.28000e-01       2.97405e-06       5.45287e-07       1.73933e-14       2.63948e-09       4.85701e-01       3.11746e-01       4.85701e-01      
 8.37000e-01       3.05260e-06       5.72407e-07       1.74202e-14       2.72917e-09       4.85701e-01       3.19080e-01       4.85701e-01      
 8.46000e-01       3.13091e-06       6.00233e-07       1.74459e-14       2.82015e-09       4.85701e-01       3.26442e-01       4.85701e-01      
 8.55000e-01       3.20896e-06       6.28762e-07       1.74706e-14       2.91241e-09       4.85701e-01       3.33830e-01       4.85701e-01      
 8.64000e-01       3.28674e-06       6.57993e-07       1.74943e-14       3.00596e-09       4.85701e-01       3.41244e-01       4.85701e-01      
 8.73000e-01       3.36424e-06       6.87922e-07       1.75171e-14       3.10080e-09       4.85701e-01       3.48682e-01       4.85701e-01      
 8.82000e-01       3.44144e-06       7.18547e-07       1.75390e-14       3.19695e-09       4.85701e-01       3.56145e-01       4.85701e-01      
 8.91000e-01       3.51833e-06       7.49866e-07       1.75602e-14       3.29440e-09       4.85701e-01       3.63631e-01       4.85701e-01      
 9.00000e-01       3.59491e-06       7.81875e-07       1.75805e-14       3.39318e-09       4.85701e-01       3.71139e-01       4.85701e-01      
 9.09000e-01       3.67117e-06       8.14572e-07       1.76002e-14       3.49329e-09       4.85701e-01       3.78670e-01       4.85701e-01      
 9.18000e-01       3.74708e-06       8.47954e-07       1.76192e-14       3.59474e-09       4.85701e-01       3.86223e-01       4.85701e-01      
 9.27000e-01       3.82265e-06       8.82017e-07       1.76376e-14       3.69755e-09       4.85701e-01       3.93797e-01       4.85701e-01      
 9.36000e-01       3.89787e-06       9.16759e-07       1.76554e-14       3.80173e-09       4.85701e-01       4.01393e-01       4.85701e-01      
 9.45000e-01       3.97272e-06       9.52176e-07       1.76727e-14       3.90729e-09       4.85701e-01       4.09009e-01       4.85701e-01      
 9.54000e-01       4.04719e-06       9.88265e-07       1.76894e-14       4.01425e-09       4.85701e-01       4.16646e-01       4.85701e-01      
 9.63000e-01       4.12128e-06       1.02502e-06       1.77056e-14       4.12263e-09       4.85701e-01       4.24303e-01       4.85701e-01      
 9.72000e-01       4.19498e-06       1.06245e-06       1.77214e-14       4.23245e-09       4.85701e-01       4.31980e-01       4.85701e-01      
 9.81000e-01       4.26827e-06       1.10053e-06       1.77367e-14       4.34372e-09       4.85701e-01       4.39676e-01       4.85701e-01      
 9.90000e-01       4.34116e-06       1.13927e-06       1.77517e-14       4.45647e-09       4.85701e-01       4.47393e-01       4.85701e-01      
 9.99000e-01       4.41362e-06       1.17867e-06       1.77662e-14       4.57071e-09       4.85701e-01       4.55129e-01       4.85701e-01      
 1.00800e+00       4.48565e-06       1.21871e-06       1.77803e-14       4.68647e-09       4.85701e-01       4.62885e-01       4.85701e-01      
 1.01700e+00       4.55724e-06       1.25941e-06       1.77941e-14       4.80377e-09       4.85701e-01       4.70660e-01       4.85701e-01      
 1.02600e+00       4.62839e-06       1.30074e-06       1.78076e-14       4.92264e-09       4.85701e-01       4.78454e-01       4.85701e-01      
 1.03500e+00       4.69907e-06       1.34271e-06       1.78207e-14       5.04310e-09       4.85701e-01       4.86267e-01       4.85701e-01      
 1.04400e+00       4.76929e-06       1.38532e-06       1.78335e-14       5.16517e-09       4.85701e-01       4.94100e-01       4.85701e-01      
 1.05300e+00       4.83903e-06       1.42856e-06       1.78461e-14       5.28890e-09       4.85701e-01       5.01952e-01       4.85701e-01      
 1.06200e+00       4.90829e-06       1.47242e-06       1.78583e-14       5.41429e-09       4.85701e-01       5.09822e-01       4.85701e-01      
 1.07100e+00       4.97705e-06       1.51690e-06       1.78703e-14       5.54140e-09       4.85701e-01       5.17712e-01       4.85701e-01      
 1.08000e+00       5.04530e-06       1.56200e-06       1.78820e-14       5.67023e-09       4.85701e-01       5.25621e-01       4.85701e-01      
 1.08900e+00       5.11305e-06       1.60771e-06       1.78935e-14       5.80084e-09       4.85701e-01       5.33550e-01       4.85701e-01      
 1.09800e+00       5.18027e-06       1.65403e-06       1.79047e-14       5.93326e-09       4.85701e-01       5.41497e-01       4.85701e-01      
 1.10700e+00       5.24697e-06       1.70095e-06       1.79157e-14       6.06751e-09       4.85701e-01       5.49463e-01       4.85701e-01      
 1.11600e+00       5.31312e-06       1.74847e-06       1.79265e-14       6.20364e-09       4.85701e-01       5.57449e-01       4.85701e-01      
 1.12500e+00       5.37873e-06       1.79659e-06       1.79370e-14       6.34168e-09       4.85701e-01       5.65454e-01       4.85701e-01      
 1.13400e+00       5.44379e-06       1.84529e-06       1.79474e-14       6.48168e-09       4.85701e-01       5.73478e-01       4.85701e-01      
 1.14300e+00       5.50828e-06       1.89457e-06       1.79575e-14       6.62368e-09       4.85701e-01       5.81521e-01       4.85701e-01      
 1.15200e+00       5.57220e-06       1.94443e-06       1.79675e-14       6.76772e-09       4.85701e-01       5.89584e-01       4.85701e-01      
 1.16100e+00       5.63554e-06       1.99487e-06       1.79773e-14       6.91384e-09       4.85701e-01       5.97666e-01       4.85701e-01      
 1.17000e+00       5.69830e-06       2.04587e-06       1.79869e-14       7.06210e-09       4.85701e-01       6.05768e-01       4.85701e-01      
 1.17900e+00       5.76046e-06       2.09743e-06       1.79964e-14       7.21254e-09       4.85701e-01       6.13889e-01       4.85701e-01      
 1.18800e+00       5.82202e-06       2.14955e-06       1.80056e-14       7.36521e-09       4.85701e-01       6.22030e-01       4.85701e-01      
 1.19700e+00       5.88298e-06       2.20223e-06       1.80148e-14       7.52018e-09       4.85701e-01       6.30190e-01       4.85701e-01      
 1.20600e+00       5.94332e-06       2.25544e-06       1.80237e-14       7.67748e-09       4.85701e-01       6.38370e-01       4.85701e-01      
 1.21500e+00       6.00304e-06       2.30920e-06       1.80325e-14       7.83719e-09       4.85701e-01       6.46570e-01       4.85701e-01      
