
dc (V)            getData("M0:gm    getData("M0:id    getData("M0:cg    getData("M0:gd    getData("M0:vt    getData("M0:vd    getData("M0:vt

 0.00000e+00       3.02634e-12       1.14794e-13       5.23067e-15       4.97193e-15       5.23305e-01       4.10119e-02       5.23305e-01      
 9.00000e-03       4.05124e-12       1.46420e-13       5.20802e-15       6.65629e-15       5.23305e-01       4.10119e-02       5.23305e-01      
 1.80000e-02       5.42303e-12       1.88755e-13       5.18611e-15       8.91102e-15       5.23305e-01       4.10120e-02       5.23305e-01      
 2.70000e-02       7.25897e-12       2.45423e-13       5.16495e-15       1.19291e-14       5.23305e-01       4.10120e-02       5.23305e-01      
 3.60000e-02       9.71594e-12       3.21274e-13       5.14455e-15       1.59689e-14       5.23305e-01       4.10120e-02       5.23305e-01      
 4.50000e-02       1.30037e-11       4.22795e-13       5.12494e-15       2.13759e-14       5.23305e-01       4.10121e-02       5.23305e-01      
 5.40000e-02       1.74028e-11       5.58665e-13       5.10616e-15       2.86123e-14       5.23305e-01       4.10121e-02       5.23305e-01      
 6.30000e-02       2.32881e-11       7.40492e-13       5.08827e-15       3.82962e-14       5.23305e-01       4.10122e-02       5.23305e-01      
 7.20000e-02       3.11605e-11       9.83796e-13       5.07132e-15       5.12543e-14       5.23305e-01       4.10123e-02       5.23305e-01      
 8.10000e-02       4.16893e-11       1.30933e-12       5.05539e-15       6.85918e-14       5.23305e-01       4.10125e-02       5.23305e-01      
 9.00000e-02       5.57682e-11       1.74482e-12       5.04061e-15       9.17857e-14       5.23305e-01       4.10127e-02       5.23305e-01      
 9.90000e-02       7.45895e-11       2.32734e-12       5.02708e-15       1.22810e-13       5.23305e-01       4.10130e-02       5.23305e-01      
 1.08000e-01       9.97442e-11       3.10638e-12       5.01498e-15       1.64299e-13       5.23305e-01       4.10134e-02       5.23305e-01      
 1.17000e-01       1.33353e-10       4.14803e-12       5.00451e-15       2.19774e-13       5.23305e-01       4.10139e-02       5.23305e-01      
 1.26000e-01       1.78239e-10       5.54047e-12       4.99590e-15       2.93930e-13       5.23305e-01       4.10145e-02       5.23305e-01      
 1.35000e-01       2.38162e-10       7.40132e-12       4.98946e-15       3.93029e-13       5.23305e-01       4.10154e-02       5.23305e-01      
 1.44000e-01       3.18115e-10       9.88732e-12       4.98554e-15       5.25415e-13       5.23305e-01       4.10166e-02       5.23305e-01      
 1.53000e-01       4.24731e-10       1.32072e-11       4.98458e-15       7.02199e-13       5.23305e-01       4.10182e-02       5.23305e-01      
 1.62000e-01       5.66760e-10       1.76384e-11       4.98682e-15       9.38151e-13       5.23305e-01       4.10204e-02       5.23305e-01      
 1.71000e-01       7.55827e-10       2.35496e-11       4.99314e-15       1.25288e-12       5.23305e-01       4.10232e-02       5.23305e-01      
 1.80000e-01       1.00726e-09       3.14299e-11       5.00425e-15       1.67241e-12       5.23305e-01       4.10270e-02       5.23305e-01      
 1.89000e-01       1.34122e-09       4.19272e-11       5.02100e-15       2.23119e-12       5.23305e-01       4.10320e-02       5.23305e-01      
 1.98000e-01       1.78420e-09       5.58981e-11       5.04435e-15       2.97474e-12       5.23305e-01       4.10388e-02       5.23305e-01      
 2.07000e-01       2.37083e-09       7.44728e-11       5.07539e-15       3.96306e-12       5.23305e-01       4.10477e-02       5.23305e-01      
 2.16000e-01       3.14621e-09       9.91380e-11       5.11536e-15       5.27503e-12       5.23305e-01       4.10596e-02       5.23305e-01      
 2.25000e-01       4.16883e-09       1.31845e-10       5.16562e-15       7.01398e-12       5.23305e-01       4.10753e-02       5.23305e-01      
 2.34000e-01       5.51408e-09       1.75143e-10       5.22764e-15       9.31478e-12       5.23305e-01       4.10960e-02       5.23305e-01      
 2.43000e-01       7.27853e-09       2.32353e-10       5.30301e-15       1.23526e-11       5.23305e-01       4.11235e-02       5.23305e-01      
 2.52000e-01       9.58495e-09       3.07779e-10       5.39335e-15       1.63537e-11       5.23305e-01       4.11596e-02       5.23305e-01      
 2.61000e-01       1.25881e-08       4.06968e-10       5.50031e-15       2.16086e-11       5.23305e-01       4.12070e-02       5.23305e-01      
 2.70000e-01       1.64811e-08       5.37030e-10       5.62552e-15       2.84876e-11       5.23305e-01       4.12689e-02       5.23305e-01      
 2.79000e-01       2.15025e-08       7.07008e-10       5.77051e-15       3.74582e-11       5.23305e-01       4.13497e-02       5.23305e-01      
 2.88000e-01       2.79428e-08       9.28325e-10       5.93663e-15       4.91053e-11       5.23305e-01       4.14543e-02       5.23305e-01      
 2.97000e-01       3.61516e-08       1.21528e-09       6.12505e-15       6.41519e-11       5.23305e-01       4.15892e-02       5.23305e-01      
 3.06000e-01       4.65424e-08       1.58559e-09       6.33665e-15       8.34802e-11       5.23305e-01       4.17621e-02       5.23305e-01      
 3.15000e-01       5.95966e-08       2.06102e-09       6.57198e-15       1.08150e-10       5.23305e-01       4.19821e-02       5.23305e-01      
 3.24000e-01       7.58639e-08       2.66797e-09       6.83125e-15       1.39414e-10       5.23305e-01       4.22597e-02       5.23305e-01      
 3.33000e-01       9.59598e-08       3.43806e-09       7.11424e-15       1.78723e-10       5.23305e-01       4.26071e-02       5.23305e-01      
 3.42000e-01       1.20559e-07       4.40875e-09       7.42037e-15       2.27724e-10       5.23305e-01       4.30375e-02       5.23305e-01      
 3.51000e-01       1.50383e-07       5.62379e-09       7.74862e-15       2.88244e-10       5.23305e-01       4.35652e-02       5.23305e-01      
 3.60000e-01       1.86187e-07       7.13358e-09       8.09761e-15       3.62257e-10       5.23305e-01       4.42049e-02       5.23305e-01      
 3.69000e-01       2.28738e-07       8.99540e-09       8.46555e-15       4.51842e-10       5.23305e-01       4.49711e-02       5.23305e-01      
 3.78000e-01       2.78799e-07       1.12734e-08       8.85038e-15       5.59128e-10       5.23305e-01       4.58778e-02       5.23305e-01      
 3.87000e-01       3.37108e-07       1.40385e-08       9.24970e-15       6.86237e-10       5.23305e-01       4.69374e-02       5.23305e-01      
 3.96000e-01       4.04369e-07       1.73682e-08       9.66095e-15       8.35227e-10       5.23305e-01       4.81605e-02       5.23305e-01      
 4.05000e-01       4.81250e-07       2.13460e-08       1.00814e-14       1.00805e-09       5.23305e-01       4.95553e-02       5.23305e-01      
 4.14000e-01       5.68393e-07       2.60615e-08       1.05081e-14       1.20652e-09       5.23305e-01       5.11280e-02       5.23305e-01      
 4.23000e-01       6.66437e-07       3.16098e-08       1.09383e-14       1.43230e-09       5.23305e-01       5.28822e-02       5.23305e-01      
 4.32000e-01       7.76049e-07       3.80921e-08       1.13692e-14       1.68695e-09       5.23305e-01       5.48199e-02       5.23305e-01      
 4.41000e-01       8.97957e-07       4.56156e-08       1.17980e-14       1.97190e-09       5.23305e-01       5.69416e-02       5.23305e-01      
 4.50000e-01       1.03297e-06       5.42946e-08       1.22222e-14       2.28855e-09       5.23305e-01       5.92470e-02       5.23305e-01      
 4.59000e-01       1.18199e-06       6.42511e-08       1.26395e-14       2.63824e-09       5.23305e-01       6.17350e-02       5.23305e-01      
 4.68000e-01       1.34603e-06       7.56155e-08       1.30477e-14       3.02236e-09       5.23305e-01       6.44049e-02       5.23305e-01      
 4.77000e-01       1.52617e-06       8.85279e-08       1.34451e-14       3.44232e-09       5.23305e-01       6.72556e-02       5.23305e-01      
 4.86000e-01       1.72352e-06       1.03138e-07       1.38301e-14       3.89963e-09       5.23305e-01       7.02865e-02       5.23305e-01      
 4.95000e-01       1.93921e-06       1.19606e-07       1.42014e-14       4.39580e-09       5.23305e-01       7.34973e-02       5.23305e-01      
 5.04000e-01       2.17433e-06       1.38102e-07       1.45580e-14       4.93245e-09       5.23305e-01       7.68877e-02       5.23305e-01      
 5.13000e-01       2.42989e-06       1.58806e-07       1.48992e-14       5.51122e-09       5.23305e-01       8.04574e-02       5.23305e-01      
 5.22000e-01       2.70674e-06       1.81904e-07       1.52246e-14       6.13376e-09       5.23305e-01       8.42061e-02       5.23305e-01      
 5.31000e-01       3.00559e-06       2.07593e-07       1.55339e-14       6.80172e-09       5.23305e-01       8.81332e-02       5.23305e-01      
 5.40000e-01       3.32696e-06       2.36072e-07       1.58270e-14       7.51674e-09       5.23305e-01       9.22377e-02       5.23305e-01      
 5.49000e-01       3.67113e-06       2.67547e-07       1.61040e-14       8.28039e-09       5.23305e-01       9.65179e-02       5.23305e-01      
 5.58000e-01       4.03818e-06       3.02221e-07       1.63653e-14       9.09418e-09       5.23305e-01       1.00972e-01       5.23305e-01      
 5.67000e-01       4.42793e-06       3.40302e-07       1.66112e-14       9.95954e-09       5.23305e-01       1.05596e-01       5.23305e-01      
 5.76000e-01       4.84002e-06       3.81991e-07       1.68423e-14       1.08778e-08       5.23305e-01       1.10388e-01       5.23305e-01      
 5.85000e-01       5.27383e-06       4.27487e-07       1.70590e-14       1.18503e-08       5.23305e-01       1.15342e-01       5.23305e-01      
 5.94000e-01       5.72859e-06       4.76983e-07       1.72621e-14       1.28780e-08       5.23305e-01       1.20456e-01       5.23305e-01      
 6.03000e-01       6.20335e-06       5.30662e-07       1.74522e-14       1.39622e-08       5.23305e-01       1.25722e-01       5.23305e-01      
 6.12000e-01       6.69702e-06       5.88700e-07       1.76299e-14       1.51038e-08       5.23305e-01       1.31136e-01       5.23305e-01      
 6.21000e-01       7.20839e-06       6.51262e-07       1.77960e-14       1.63036e-08       5.23305e-01       1.36691e-01       5.23305e-01      
 6.30000e-01       7.73619e-06       7.18500e-07       1.79511e-14       1.75626e-08       5.23305e-01       1.42381e-01       5.23305e-01      
 6.39000e-01       8.27909e-06       7.90558e-07       1.80960e-14       1.88817e-08       5.23305e-01       1.48199e-01       5.23305e-01      
 6.48000e-01       8.83574e-06       8.67565e-07       1.82312e-14       2.02615e-08       5.23305e-01       1.54140e-01       5.23305e-01      
 6.57000e-01       9.40480e-06       9.49639e-07       1.83576e-14       2.17029e-08       5.23305e-01       1.60196e-01       5.23305e-01      
 6.66000e-01       9.98492e-06       1.03688e-06       1.84756e-14       2.32066e-08       5.23305e-01       1.66360e-01       5.23305e-01      
 6.75000e-01       1.05748e-05       1.12940e-06       1.85858e-14       2.47736e-08       5.23305e-01       1.72627e-01       5.23305e-01      
 6.84000e-01       1.11733e-05       1.22726e-06       1.86889e-14       2.64046e-08       5.23305e-01       1.78989e-01       5.23305e-01      
 6.93000e-01       1.17791e-05       1.33054e-06       1.87853e-14       2.81006e-08       5.23305e-01       1.85442e-01       5.23305e-01      
 7.02000e-01       1.23912e-05       1.43930e-06       1.88755e-14       2.98624e-08       5.23305e-01       1.91978e-01       5.23305e-01      
 7.11000e-01       1.30085e-05       1.55359e-06       1.89601e-14       3.16912e-08       5.23305e-01       1.98592e-01       5.23305e-01      
 7.20000e-01       1.36301e-05       1.67347e-06       1.90394e-14       3.35882e-08       5.23305e-01       2.05279e-01       5.23305e-01      
 7.29000e-01       1.42552e-05       1.79895e-06       1.91138e-14       3.55544e-08       5.23305e-01       2.12034e-01       5.23305e-01      
 7.38000e-01       1.48830e-05       1.93007e-06       1.91837e-14       3.75913e-08       5.23305e-01       2.18852e-01       5.23305e-01      
 7.47000e-01       1.55127e-05       2.06685e-06       1.92495e-14       3.97003e-08       5.23305e-01       2.25729e-01       5.23305e-01      
 7.56000e-01       1.61436e-05       2.20930e-06       1.93115e-14       4.18830e-08       5.23305e-01       2.32660e-01       5.23305e-01      
 7.65000e-01       1.67753e-05       2.35743e-06       1.93699e-14       4.41412e-08       5.23305e-01       2.39642e-01       5.23305e-01      
 7.74000e-01       1.74073e-05       2.51126e-06       1.94251e-14       4.64767e-08       5.23305e-01       2.46672e-01       5.23305e-01      
 7.83000e-01       1.80389e-05       2.67076e-06       1.94772e-14       4.88916e-08       5.23305e-01       2.53745e-01       5.23305e-01      
 7.92000e-01       1.86700e-05       2.83596e-06       1.95266e-14       5.13880e-08       5.23305e-01       2.60859e-01       5.23305e-01      
 8.01000e-01       1.93000e-05       3.00682e-06       1.95735e-14       5.39685e-08       5.23305e-01       2.68011e-01       5.23305e-01      
 8.10000e-01       1.99287e-05       3.18335e-06       1.96180e-14       5.66355e-08       5.23305e-01       2.75199e-01       5.23305e-01      
 8.19000e-01       2.05557e-05       3.36553e-06       1.96602e-14       5.93919e-08       5.23305e-01       2.82420e-01       5.23305e-01      
 8.28000e-01       2.11809e-05       3.55335e-06       1.97005e-14       6.22406e-08       5.23305e-01       2.89672e-01       5.23305e-01      
 8.37000e-01       2.18041e-05       3.74678e-06       1.97389e-14       6.51849e-08       5.23305e-01       2.96953e-01       5.23305e-01      
 8.46000e-01       2.24249e-05       3.94581e-06       1.97756e-14       6.82282e-08       5.23305e-01       3.04262e-01       5.23305e-01      
 8.55000e-01       2.30433e-05       4.15042e-06       1.98106e-14       7.13743e-08       5.23305e-01       3.11596e-01       5.23305e-01      
 8.64000e-01       2.36591e-05       4.36059e-06       1.98442e-14       7.46271e-08       5.23305e-01       3.18955e-01       5.23305e-01      
 8.73000e-01       2.42721e-05       4.57628e-06       1.98764e-14       7.79910e-08       5.23305e-01       3.26336e-01       5.23305e-01      
 8.82000e-01       2.48822e-05       4.79747e-06       1.99073e-14       8.14706e-08       5.23305e-01       3.33740e-01       5.23305e-01      
 8.91000e-01       2.54893e-05       5.02415e-06       1.99370e-14       8.50708e-08       5.23305e-01       3.41164e-01       5.23305e-01      
 9.00000e-01       2.60932e-05       5.25627e-06       1.99656e-14       8.87968e-08       5.23305e-01       3.48607e-01       5.23305e-01      
 9.09000e-01       2.66940e-05       5.49382e-06       1.99932e-14       9.26545e-08       5.23305e-01       3.56070e-01       5.23305e-01      
 9.18000e-01       2.72914e-05       5.73675e-06       2.00198e-14       9.66498e-08       5.23305e-01       3.63550e-01       5.23305e-01      
 9.27000e-01       2.78853e-05       5.98505e-06       2.00455e-14       1.00789e-07       5.23305e-01       3.71048e-01       5.23305e-01      
 9.36000e-01       2.84758e-05       6.23868e-06       2.00704e-14       1.05080e-07       5.23305e-01       3.78562e-01       5.23305e-01      
 9.45000e-01       2.90627e-05       6.49760e-06       2.00945e-14       1.09530e-07       5.23305e-01       3.86093e-01       5.23305e-01      
 9.54000e-01       2.96458e-05       6.76180e-06       2.01179e-14       1.14146e-07       5.23305e-01       3.93639e-01       5.23305e-01      
 9.63000e-01       3.02252e-05       7.03122e-06       2.01406e-14       1.18939e-07       5.23305e-01       4.01200e-01       5.23305e-01      
 9.72000e-01       3.08007e-05       7.30584e-06       2.01627e-14       1.23916e-07       5.23305e-01       4.08776e-01       5.23305e-01      
 9.81000e-01       3.13723e-05       7.58562e-06       2.01843e-14       1.29089e-07       5.23305e-01       4.16366e-01       5.23305e-01      
 9.90000e-01       3.19399e-05       7.87053e-06       2.02052e-14       1.34468e-07       5.23305e-01       4.23971e-01       5.23305e-01      
 9.99000e-01       3.25033e-05       8.16053e-06       2.02257e-14       1.40064e-07       5.23305e-01       4.31589e-01       5.23305e-01      
 1.00800e+00       3.30626e-05       8.45557e-06       2.02457e-14       1.45892e-07       5.23305e-01       4.39220e-01       5.23305e-01      
 1.01700e+00       3.36175e-05       8.75564e-06       2.02653e-14       1.51964e-07       5.23305e-01       4.46865e-01       5.23305e-01      
 1.02600e+00       3.41681e-05       9.06068e-06       2.02845e-14       1.58295e-07       5.23305e-01       4.54523e-01       5.23305e-01      
 1.03500e+00       3.47143e-05       9.37065e-06       2.03032e-14       1.64902e-07       5.23305e-01       4.62194e-01       5.23305e-01      
 1.04400e+00       3.52559e-05       9.68552e-06       2.03217e-14       1.71803e-07       5.23305e-01       4.69878e-01       5.23305e-01      
 1.05300e+00       3.57928e-05       1.00052e-05       2.03398e-14       1.79015e-07       5.23305e-01       4.77574e-01       5.23305e-01      
 1.06200e+00       3.63251e-05       1.03298e-05       2.03577e-14       1.86560e-07       5.23305e-01       4.85284e-01       5.23305e-01      
 1.07100e+00       3.68525e-05       1.06591e-05       2.03753e-14       1.94460e-07       5.23305e-01       4.93005e-01       5.23305e-01      
 1.08000e+00       3.73750e-05       1.09931e-05       2.03927e-14       2.02740e-07       5.23305e-01       5.00739e-01       5.23305e-01      
 1.08900e+00       3.78924e-05       1.13318e-05       2.04098e-14       2.11427e-07       5.23305e-01       5.08486e-01       5.23305e-01      
 1.09800e+00       3.84048e-05       1.16752e-05       2.04268e-14       2.20549e-07       5.23305e-01       5.16244e-01       5.23305e-01      
 1.10700e+00       3.89119e-05       1.20231e-05       2.04436e-14       2.30140e-07       5.23305e-01       5.24016e-01       5.23305e-01      
 1.11600e+00       3.94138e-05       1.23756e-05       2.04603e-14       2.40233e-07       5.23305e-01       5.31799e-01       5.23305e-01      
 1.12500e+00       3.99102e-05       1.27325e-05       2.04768e-14       2.50867e-07       5.23305e-01       5.39595e-01       5.23305e-01      
 1.13400e+00       4.04011e-05       1.30939e-05       2.04933e-14       2.62084e-07       5.23305e-01       5.47403e-01       5.23305e-01      
 1.14300e+00       4.08863e-05       1.34597e-05       2.05096e-14       2.73931e-07       5.23305e-01       5.55223e-01       5.23305e-01      
 1.15200e+00       4.13658e-05       1.38299e-05       2.05260e-14       2.86458e-07       5.23305e-01       5.63056e-01       5.23305e-01      
 1.16100e+00       4.18394e-05       1.42043e-05       2.05423e-14       2.99722e-07       5.23305e-01       5.70901e-01       5.23305e-01      
 1.17000e+00       4.23070e-05       1.45829e-05       2.05586e-14       3.13784e-07       5.23305e-01       5.78759e-01       5.23305e-01      
 1.17900e+00       4.27685e-05       1.49658e-05       2.05749e-14       3.28714e-07       5.23305e-01       5.86629e-01       5.23305e-01      
 1.18800e+00       4.32237e-05       1.53528e-05       2.05913e-14       3.44586e-07       5.23305e-01       5.94512e-01       5.23305e-01      
 1.19700e+00       4.36725e-05       1.57438e-05       2.06078e-14       3.61484e-07       5.23305e-01       6.02407e-01       5.23305e-01      
 1.20600e+00       4.41147e-05       1.61388e-05       2.06243e-14       3.79502e-07       5.23305e-01       6.10315e-01       5.23305e-01      
 1.21500e+00       4.45503e-05       1.65378e-05       2.06410e-14       3.98743e-07       5.23305e-01       6.18235e-01       5.23305e-01      
