
dc (V)            getData("M0:gm    getData("M0:id    getData("M0:cg    getData("M0:gd    getData("M0:vt    getData("M0:vd    getData("M0:vt

 0.00000e+00       1.09962e-12       5.51387e-14       1.49155e-14       8.01009e-16       5.16041e-01       4.00448e-02       5.16041e-01      
 9.00000e-03       1.47485e-12       6.66413e-14       1.48470e-14       1.07444e-15       5.16041e-01       4.00448e-02       5.16041e-01      
 1.80000e-02       1.97803e-12       8.20687e-14       1.47809e-14       1.44116e-15       5.16041e-01       4.00449e-02       5.16041e-01      
 2.70000e-02       2.65276e-12       1.02759e-13       1.47170e-14       1.93299e-15       5.16041e-01       4.00449e-02       5.16041e-01      
 3.60000e-02       3.55743e-12       1.30506e-13       1.46556e-14       2.59257e-15       5.16041e-01       4.00449e-02       5.16041e-01      
 4.50000e-02       4.77029e-12       1.67715e-13       1.45968e-14       3.47705e-15       5.16041e-01       4.00450e-02       5.16041e-01      
 5.40000e-02       6.39616e-12       2.17607e-13       1.45405e-14       4.66303e-15       5.16041e-01       4.00451e-02       5.16041e-01      
 6.30000e-02       8.57537e-12       2.84501e-13       1.44872e-14       6.25315e-15       5.16041e-01       4.00452e-02       5.16041e-01      
 7.20000e-02       1.14958e-11       3.74181e-13       1.44369e-14       8.38491e-15       5.16041e-01       4.00453e-02       5.16041e-01      
 8.10000e-02       1.54088e-11       4.94394e-13       1.43900e-14       1.12425e-14       5.16041e-01       4.00455e-02       5.16041e-01      
 9.00000e-02       2.06506e-11       6.55514e-13       1.43468e-14       1.50723e-14       5.16041e-01       4.00457e-02       5.16041e-01      
 9.90000e-02       2.76706e-11       8.71424e-13       1.43078e-14       2.02046e-14       5.16041e-01       4.00460e-02       5.16041e-01      
 1.08000e-01       3.70694e-11       1.16070e-12       1.42735e-14       2.70807e-14       5.16041e-01       4.00465e-02       5.16041e-01      
 1.17000e-01       4.96483e-11       1.54819e-12       1.42447e-14       3.62911e-14       5.16041e-01       4.00470e-02       5.16041e-01      
 1.26000e-01       6.64766e-11       2.06708e-12       1.42221e-14       4.86248e-14       5.16041e-01       4.00478e-02       5.16041e-01      
 1.35000e-01       8.89784e-11       2.76174e-12       1.42069e-14       6.51357e-14       5.16041e-01       4.00489e-02       5.16041e-01      
 1.44000e-01       1.19049e-10       3.69134e-12       1.42001e-14       8.72301e-14       5.16041e-01       4.00502e-02       5.16041e-01      
 1.53000e-01       1.59207e-10       4.93480e-12       1.42034e-14       1.16783e-13       5.16041e-01       4.00521e-02       5.16041e-01      
 1.62000e-01       2.12778e-10       6.59719e-12       1.42177e-14       1.56289e-13       5.16041e-01       4.00546e-02       5.16041e-01      
 1.71000e-01       2.84184e-10       8.81817e-12       1.42458e-14       2.09066e-13       5.16041e-01       4.00579e-02       5.16041e-01      
 1.80000e-01       3.79256e-10       1.17833e-11       1.42901e-14       2.79517e-13       5.16041e-01       4.00623e-02       5.16041e-01      
 1.89000e-01       5.05666e-10       1.57386e-11       1.43536e-14       3.73479e-13       5.16041e-01       4.00682e-02       5.16041e-01      
 1.98000e-01       6.73486e-10       2.10092e-11       1.44395e-14       4.98664e-13       5.16041e-01       4.00760e-02       5.16041e-01      
 2.07000e-01       8.95876e-10       2.80246e-11       1.45513e-14       6.65242e-13       5.16041e-01       4.00865e-02       5.16041e-01      
 2.16000e-01       1.18995e-09       3.73496e-11       1.46932e-14       8.86578e-13       5.16041e-01       4.01004e-02       5.16041e-01      
 2.25000e-01       1.57788e-09       4.97247e-11       1.48695e-14       1.18017e-12       5.16041e-01       4.01188e-02       5.16041e-01      
 2.34000e-01       2.08813e-09       6.61175e-11       1.50852e-14       1.56883e-12       5.16041e-01       4.01431e-02       5.16041e-01      
 2.43000e-01       2.75708e-09       8.77861e-11       1.53450e-14       2.08212e-12       5.16041e-01       4.01752e-02       5.16041e-01      
 2.52000e-01       3.63078e-09       1.16358e-10       1.56542e-14       2.75819e-12       5.16041e-01       4.02175e-02       5.16041e-01      
 2.61000e-01       4.76699e-09       1.53926e-10       1.60178e-14       3.64582e-12       5.16041e-01       4.02730e-02       5.16041e-01      
 2.70000e-01       6.23735e-09       2.03165e-10       1.64406e-14       4.80695e-12       5.16041e-01       4.03455e-02       5.16041e-01      
 2.79000e-01       8.12971e-09       2.67463e-10       1.69270e-14       6.31943e-12       5.16041e-01       4.04397e-02       5.16041e-01      
 2.88000e-01       1.05502e-08       3.51082e-10       1.74809e-14       8.28008e-12       5.16041e-01       4.05617e-02       5.16041e-01      
 2.97000e-01       1.36253e-08       4.59328e-10       1.81051e-14       1.08077e-11       5.16041e-01       4.07185e-02       5.16041e-01      
 3.06000e-01       1.75030e-08       5.98743e-10       1.88017e-14       1.40462e-11       5.16041e-01       4.09187e-02       5.16041e-01      
 3.15000e-01       2.23535e-08       7.77298e-10       1.95716e-14       1.81667e-11       5.16041e-01       4.11724e-02       5.16041e-01      
 3.24000e-01       2.83688e-08       1.00460e-09       2.04146e-14       2.33694e-11       5.16041e-01       4.14910e-02       5.16041e-01      
 3.33000e-01       3.57607e-08       1.29207e-09       2.13292e-14       2.98835e-11       5.16041e-01       4.18874e-02       5.16041e-01      
 3.42000e-01       4.47577e-08       1.65311e-09       2.23124e-14       3.79660e-11       5.16041e-01       4.23754e-02       5.16041e-01      
 3.51000e-01       5.56004e-08       2.10324e-09       2.33604e-14       4.78981e-11       5.16041e-01       4.29693e-02       5.16041e-01      
 3.60000e-01       6.85362e-08       2.66019e-09       2.44679e-14       5.99797e-11       5.16041e-01       4.36836e-02       5.16041e-01      
 3.69000e-01       8.38124e-08       3.34391e-09       2.56287e-14       7.45232e-11       5.16041e-01       4.45323e-02       5.16041e-01      
 3.78000e-01       1.01671e-07       4.17656e-09       2.68356e-14       9.18451e-11       5.16041e-01       4.55279e-02       5.16041e-01      
 3.87000e-01       1.22345e-07       5.18244e-09       2.80808e-14       1.12259e-10       5.16041e-01       4.66814e-02       5.16041e-01      
 3.96000e-01       1.46055e-07       6.38788e-09       2.93559e-14       1.36068e-10       5.16041e-01       4.80014e-02       5.16041e-01      
 4.05000e-01       1.73016e-07       7.82118e-09       3.06521e-14       1.63563e-10       5.16041e-01       4.94944e-02       5.16041e-01      
 4.14000e-01       2.03441e-07       9.51256e-09       3.19606e-14       1.95018e-10       5.16041e-01       5.11647e-02       5.16041e-01      
 4.23000e-01       2.37550e-07       1.14942e-08       3.32726e-14       2.30694e-10       5.16041e-01       5.30145e-02       5.16041e-01      
 4.32000e-01       2.75582e-07       1.38002e-08       3.45798e-14       2.70840e-10       5.16041e-01       5.50447e-02       5.16041e-01      
 4.41000e-01       3.17806e-07       1.64672e-08       3.58742e-14       3.15702e-10       5.16041e-01       5.72553e-02       5.16041e-01      
 4.50000e-01       3.64520e-07       1.95342e-08       3.71484e-14       3.65524e-10       5.16041e-01       5.96455e-02       5.16041e-01      
 4.59000e-01       4.16055e-07       2.30430e-08       3.83958e-14       4.20556e-10       5.16041e-01       6.22146e-02       5.16041e-01      
 4.68000e-01       4.72771e-07       2.70387e-08       3.96108e-14       4.81058e-10       5.16041e-01       6.49618e-02       5.16041e-01      
 4.77000e-01       5.35043e-07       3.15696e-08       4.07882e-14       5.47299e-10       5.16041e-01       6.78868e-02       5.16041e-01      
 4.86000e-01       6.03254e-07       3.66873e-08       4.19242e-14       6.19561e-10       5.16041e-01       7.09892e-02       5.16041e-01      
 4.95000e-01       6.77774e-07       4.24471e-08       4.30156e-14       6.98137e-10       5.16041e-01       7.42691e-02       5.16041e-01      
 5.04000e-01       7.58949e-07       4.89072e-08       4.40599e-14       7.83327e-10       5.16041e-01       7.77264e-02       5.16041e-01      
 5.13000e-01       8.47084e-07       5.61290e-08       4.50557e-14       8.75436e-10       5.16041e-01       8.13611e-02       5.16041e-01      
 5.22000e-01       9.42434e-07       6.41764e-08       4.60021e-14       9.74767e-10       5.16041e-01       8.51726e-02       5.16041e-01      
 5.31000e-01       1.04519e-06       7.31151e-08       4.68990e-14       1.08162e-09       5.16041e-01       8.91603e-02       5.16041e-01      
 5.40000e-01       1.15548e-06       8.30124e-08       4.77466e-14       1.19629e-09       5.16041e-01       9.33228e-02       5.16041e-01      
 5.49000e-01       1.27334e-06       9.39364e-08       4.85457e-14       1.31906e-09       5.16041e-01       9.76582e-02       5.16041e-01      
 5.58000e-01       1.39875e-06       1.05955e-07       4.92976e-14       1.45019e-09       5.16041e-01       1.02164e-01       5.16041e-01      
 5.67000e-01       1.53161e-06       1.19136e-07       5.00037e-14       1.58994e-09       5.16041e-01       1.06837e-01       5.16041e-01      
 5.76000e-01       1.67175e-06       1.33546e-07       5.06658e-14       1.73853e-09       5.16041e-01       1.11673e-01       5.16041e-01      
 5.85000e-01       1.81892e-06       1.49249e-07       5.12858e-14       1.89620e-09       5.16041e-01       1.16668e-01       5.16041e-01      
 5.94000e-01       1.97284e-06       1.66307e-07       5.18657e-14       2.06315e-09       5.16041e-01       1.21817e-01       5.16041e-01      
 6.03000e-01       2.13316e-06       1.84779e-07       5.24077e-14       2.23955e-09       5.16041e-01       1.27114e-01       5.16041e-01      
 6.12000e-01       2.29951e-06       2.04722e-07       5.29139e-14       2.42558e-09       5.16041e-01       1.32554e-01       5.16041e-01      
 6.21000e-01       2.47147e-06       2.26187e-07       5.33865e-14       2.62141e-09       5.16041e-01       1.38129e-01       5.16041e-01      
 6.30000e-01       2.64862e-06       2.49224e-07       5.38275e-14       2.82719e-09       5.16041e-01       1.43835e-01       5.16041e-01      
 6.39000e-01       2.83052e-06       2.73877e-07       5.42390e-14       3.04307e-09       5.16041e-01       1.49664e-01       5.16041e-01      
 6.48000e-01       3.01674e-06       3.00186e-07       5.46229e-14       3.26919e-09       5.16041e-01       1.55610e-01       5.16041e-01      
 6.57000e-01       3.20684e-06       3.28190e-07       5.49813e-14       3.50570e-09       5.16041e-01       1.61667e-01       5.16041e-01      
 6.66000e-01       3.40039e-06       3.57920e-07       5.53159e-14       3.75275e-09       5.16041e-01       1.67827e-01       5.16041e-01      
 6.75000e-01       3.59700e-06       3.89406e-07       5.56285e-14       4.01050e-09       5.16041e-01       1.74085e-01       5.16041e-01      
 6.84000e-01       3.79628e-06       4.22674e-07       5.59206e-14       4.27910e-09       5.16041e-01       1.80435e-01       5.16041e-01      
 6.93000e-01       3.99787e-06       4.57746e-07       5.61938e-14       4.55874e-09       5.16041e-01       1.86871e-01       5.16041e-01      
 7.02000e-01       4.20143e-06       4.94641e-07       5.64496e-14       4.84961e-09       5.16041e-01       1.93388e-01       5.16041e-01      
 7.11000e-01       4.40665e-06       5.33377e-07       5.66892e-14       5.15191e-09       5.16041e-01       1.99979e-01       5.16041e-01      
 7.20000e-01       4.61325e-06       5.73965e-07       5.69139e-14       5.46588e-09       5.16041e-01       2.06641e-01       5.16041e-01      
 7.29000e-01       4.82096e-06       6.16418e-07       5.71249e-14       5.79176e-09       5.16041e-01       2.13368e-01       5.16041e-01      
 7.38000e-01       5.02954e-06       6.60745e-07       5.73232e-14       6.12982e-09       5.16041e-01       2.20156e-01       5.16041e-01      
 7.47000e-01       5.23880e-06       7.06952e-07       5.75098e-14       6.48036e-09       5.16041e-01       2.27002e-01       5.16041e-01      
 7.56000e-01       5.44853e-06       7.55045e-07       5.76856e-14       6.84372e-09       5.16041e-01       2.33900e-01       5.16041e-01      
 7.65000e-01       5.65856e-06       8.05027e-07       5.78515e-14       7.22024e-09       5.16041e-01       2.40848e-01       5.16041e-01      
 7.74000e-01       5.86874e-06       8.56899e-07       5.80082e-14       7.61031e-09       5.16041e-01       2.47843e-01       5.16041e-01      
 7.83000e-01       6.07895e-06       9.10664e-07       5.81565e-14       8.01436e-09       5.16041e-01       2.54881e-01       5.16041e-01      
 7.92000e-01       6.28904e-06       9.66320e-07       5.82969e-14       8.43286e-09       5.16041e-01       2.61960e-01       5.16041e-01      
 8.01000e-01       6.49893e-06       1.02387e-06       5.84302e-14       8.86629e-09       5.16041e-01       2.69077e-01       5.16041e-01      
 8.10000e-01       6.70852e-06       1.08330e-06       5.85567e-14       9.31521e-09       5.16041e-01       2.76230e-01       5.16041e-01      
 8.19000e-01       6.91772e-06       1.14462e-06       5.86772e-14       9.78021e-09       5.16041e-01       2.83417e-01       5.16041e-01      
 8.28000e-01       7.12645e-06       1.20782e-06       5.87919e-14       1.02619e-08       5.16041e-01       2.90636e-01       5.16041e-01      
 8.37000e-01       7.33466e-06       1.27289e-06       5.89014e-14       1.07610e-08       5.16041e-01       2.97885e-01       5.16041e-01      
 8.46000e-01       7.54227e-06       1.33984e-06       5.90060e-14       1.12783e-08       5.16041e-01       3.05162e-01       5.16041e-01      
 8.55000e-01       7.74924e-06       1.40865e-06       5.91061e-14       1.18145e-08       5.16041e-01       3.12466e-01       5.16041e-01      
 8.64000e-01       7.95552e-06       1.47932e-06       5.92021e-14       1.23705e-08       5.16041e-01       3.19796e-01       5.16041e-01      
 8.73000e-01       8.16106e-06       1.55185e-06       5.92941e-14       1.29473e-08       5.16041e-01       3.27150e-01       5.16041e-01      
 8.82000e-01       8.36582e-06       1.62622e-06       5.93826e-14       1.35459e-08       5.16041e-01       3.34528e-01       5.16041e-01      
 8.91000e-01       8.56977e-06       1.70243e-06       5.94677e-14       1.41674e-08       5.16041e-01       3.41929e-01       5.16041e-01      
 9.00000e-01       8.77285e-06       1.78047e-06       5.95497e-14       1.48129e-08       5.16041e-01       3.49351e-01       5.16041e-01      
 9.09000e-01       8.97505e-06       1.86034e-06       5.96288e-14       1.54838e-08       5.16041e-01       3.56794e-01       5.16041e-01      
 9.18000e-01       9.17633e-06       1.94202e-06       5.97053e-14       1.61814e-08       5.16041e-01       3.64257e-01       5.16041e-01      
 9.27000e-01       9.37666e-06       2.02551e-06       5.97792e-14       1.69073e-08       5.16041e-01       3.71740e-01       5.16041e-01      
 9.36000e-01       9.57600e-06       2.11080e-06       5.98508e-14       1.76630e-08       5.16041e-01       3.79241e-01       5.16041e-01      
 9.45000e-01       9.77432e-06       2.19788e-06       5.99203e-14       1.84503e-08       5.16041e-01       3.86761e-01       5.16041e-01      
 9.54000e-01       9.97160e-06       2.28673e-06       5.99877e-14       1.92712e-08       5.16041e-01       3.94299e-01       5.16041e-01      
 9.63000e-01       1.01678e-05       2.37736e-06       6.00532e-14       2.01276e-08       5.16041e-01       4.01854e-01       5.16041e-01      
 9.72000e-01       1.03629e-05       2.46975e-06       6.01170e-14       2.10219e-08       5.16041e-01       4.09426e-01       5.16041e-01      
 9.81000e-01       1.05569e-05       2.56389e-06       6.01792e-14       2.19565e-08       5.16041e-01       4.17016e-01       5.16041e-01      
 9.90000e-01       1.07497e-05       2.65977e-06       6.02398e-14       2.29340e-08       5.16041e-01       4.24621e-01       5.16041e-01      
 9.99000e-01       1.09413e-05       2.75738e-06       6.02990e-14       2.39573e-08       5.16041e-01       4.32244e-01       5.16041e-01      
 1.00800e+00       1.11317e-05       2.85671e-06       6.03569e-14       2.50296e-08       5.16041e-01       4.39882e-01       5.16041e-01      
 1.01700e+00       1.13208e-05       2.95775e-06       6.04136e-14       2.61543e-08       5.16041e-01       4.47536e-01       5.16041e-01      
 1.02600e+00       1.15087e-05       3.06048e-06       6.04691e-14       2.73352e-08       5.16041e-01       4.55206e-01       5.16041e-01      
 1.03500e+00       1.16952e-05       3.16490e-06       6.05236e-14       2.85764e-08       5.16041e-01       4.62891e-01       5.16041e-01      
 1.04400e+00       1.18804e-05       3.27099e-06       6.05771e-14       2.98824e-08       5.16041e-01       4.70591e-01       5.16041e-01      
 1.05300e+00       1.20642e-05       3.37874e-06       6.06297e-14       3.12580e-08       5.16041e-01       4.78308e-01       5.16041e-01      
 1.06200e+00       1.22466e-05       3.48814e-06       6.06814e-14       3.27088e-08       5.16041e-01       4.86039e-01       5.16041e-01      
 1.07100e+00       1.24275e-05       3.59918e-06       6.07325e-14       3.42407e-08       5.16041e-01       4.93785e-01       5.16041e-01      
 1.08000e+00       1.26070e-05       3.71183e-06       6.07828e-14       3.58601e-08       5.16041e-01       5.01546e-01       5.16041e-01      
 1.08900e+00       1.27849e-05       3.82610e-06       6.08325e-14       3.75744e-08       5.16041e-01       5.09323e-01       5.16041e-01      
 1.09800e+00       1.29613e-05       3.94196e-06       6.08817e-14       3.93914e-08       5.16041e-01       5.17114e-01       5.16041e-01      
 1.10700e+00       1.31361e-05       4.05940e-06       6.09304e-14       4.13200e-08       5.16041e-01       5.24920e-01       5.16041e-01      
 1.11600e+00       1.33093e-05       4.17840e-06       6.09786e-14       4.33698e-08       5.16041e-01       5.32742e-01       5.16041e-01      
 1.12500e+00       1.34809e-05       4.29896e-06       6.10265e-14       4.55516e-08       5.16041e-01       5.40578e-01       5.16041e-01      
 1.13400e+00       1.36507e-05       4.42105e-06       6.10740e-14       4.78773e-08       5.16041e-01       5.48429e-01       5.16041e-01      
 1.14300e+00       1.38189e-05       4.54467e-06       6.11214e-14       5.03602e-08       5.16041e-01       5.56295e-01       5.16041e-01      
 1.15200e+00       1.39852e-05       4.66979e-06       6.11685e-14       5.30149e-08       5.16041e-01       5.64175e-01       5.16041e-01      
 1.16100e+00       1.41497e-05       4.79639e-06       6.12155e-14       5.58579e-08       5.16041e-01       5.72071e-01       5.16041e-01      
 1.17000e+00       1.43124e-05       4.92448e-06       6.12624e-14       5.89074e-08       5.16041e-01       5.79981e-01       5.16041e-01      
 1.17900e+00       1.44732e-05       5.05401e-06       6.13093e-14       6.21838e-08       5.16041e-01       5.87907e-01       5.16041e-01      
 1.18800e+00       1.46320e-05       5.18499e-06       6.13563e-14       6.57098e-08       5.16041e-01       5.95847e-01       5.16041e-01      
 1.19700e+00       1.47889e-05       5.31738e-06       6.14034e-14       6.95109e-08       5.16041e-01       6.03803e-01       5.16041e-01      
 1.20600e+00       1.49437e-05       5.45118e-06       6.14507e-14       7.36157e-08       5.16041e-01       6.11773e-01       5.16041e-01      
 1.21500e+00       1.50964e-05       5.58636e-06       6.14983e-14       7.80561e-08       5.16041e-01       6.19758e-01       5.16041e-01      
