
dc (V)            getData("M0:gm    getData("M0:id    getData("M0:cg    getData("M0:gd    getData("M0:vt    getData("M0:vd    getData("M0:vt

 0.00000e+00       3.08932e-12       1.16759e-13       5.12187e-15       5.16726e-15       5.23533e-01       4.10452e-02       5.23533e-01      
 9.00000e-03       4.13527e-12       1.49042e-13       5.09974e-15       6.91731e-15       5.23533e-01       4.10452e-02       5.23533e-01      
 1.80000e-02       5.53513e-12       1.92253e-13       5.07833e-15       9.25983e-15       5.23533e-01       4.10453e-02       5.23533e-01      
 2.70000e-02       7.40853e-12       2.50091e-13       5.05764e-15       1.23953e-14       5.23533e-01       4.10453e-02       5.23533e-01      
 3.60000e-02       9.91546e-12       3.27502e-13       5.03770e-15       1.65918e-14       5.23533e-01       4.10453e-02       5.23533e-01      
 4.50000e-02       1.32699e-11       4.31104e-13       5.01854e-15       2.22081e-14       5.23533e-01       4.10454e-02       5.23533e-01      
 5.40000e-02       1.77578e-11       5.69750e-13       5.00018e-15       2.97242e-14       5.23533e-01       4.10454e-02       5.23533e-01      
 6.30000e-02       2.37615e-11       7.55279e-13       4.98269e-15       3.97818e-14       5.23533e-01       4.10455e-02       5.23533e-01      
 7.20000e-02       3.17919e-11       1.00352e-12       4.96611e-15       5.32391e-14       5.23533e-01       4.10456e-02       5.23533e-01      
 8.10000e-02       4.25312e-11       1.33564e-12       4.95054e-15       7.12431e-14       5.23533e-01       4.10458e-02       5.23533e-01      
 9.00000e-02       5.68906e-11       1.77991e-12       4.93608e-15       9.53272e-14       5.23533e-01       4.10460e-02       5.23533e-01      
 9.90000e-02       7.60858e-11       2.37413e-12       4.92285e-15       1.27540e-13       5.23533e-01       4.10463e-02       5.23533e-01      
 1.08000e-01       1.01739e-10       3.16878e-12       4.91100e-15       1.70616e-13       5.23533e-01       4.10467e-02       5.23533e-01      
 1.17000e-01       1.36010e-10       4.23121e-12       4.90074e-15       2.28209e-13       5.23533e-01       4.10472e-02       5.23533e-01      
 1.26000e-01       1.81780e-10       5.65136e-12       4.89230e-15       3.05191e-13       5.23533e-01       4.10478e-02       5.23533e-01      
 1.35000e-01       2.42877e-10       7.54911e-12       4.88596e-15       4.08060e-13       5.23533e-01       4.10487e-02       5.23533e-01      
 1.44000e-01       3.24394e-10       1.00842e-11       4.88209e-15       5.45474e-13       5.23533e-01       4.10499e-02       5.23533e-01      
 1.53000e-01       4.33089e-10       1.34695e-11       4.88109e-15       7.28962e-13       5.23533e-01       4.10515e-02       5.23533e-01      
 1.62000e-01       5.77879e-10       1.79878e-11       4.88321e-15       9.73847e-13       5.23533e-01       4.10536e-02       5.23533e-01      
 1.71000e-01       7.70612e-10       2.40148e-11       4.88930e-15       1.30048e-12       5.23533e-01       4.10565e-02       5.23533e-01      
 1.80000e-01       1.02691e-09       3.20490e-11       4.90006e-15       1.73584e-12       5.23533e-01       4.10602e-02       5.23533e-01      
 1.89000e-01       1.36732e-09       4.27508e-11       4.91631e-15       2.31568e-12       5.23533e-01       4.10653e-02       5.23533e-01      
 1.98000e-01       1.81883e-09       5.69932e-11       4.93898e-15       3.08722e-12       5.23533e-01       4.10720e-02       5.23533e-01      
 2.07000e-01       2.41674e-09       7.59279e-11       4.96915e-15       4.11269e-12       5.23533e-01       4.10808e-02       5.23533e-01      
 2.16000e-01       3.20701e-09       1.01070e-10       5.00801e-15       5.47393e-12       5.23533e-01       4.10926e-02       5.23533e-01      
 2.25000e-01       4.24925e-09       1.34408e-10       5.05690e-15       7.27812e-12       5.23533e-01       4.11083e-02       5.23533e-01      
 2.34000e-01       5.62029e-09       1.78541e-10       5.11725e-15       9.66517e-12       5.23533e-01       4.11290e-02       5.23533e-01      
 2.43000e-01       7.41857e-09       2.36853e-10       5.19060e-15       1.28168e-11       5.23533e-01       4.11563e-02       5.23533e-01      
 2.52000e-01       9.76924e-09       3.13729e-10       5.27854e-15       1.69678e-11       5.23533e-01       4.11922e-02       5.23533e-01      
 2.61000e-01       1.28301e-08       4.14826e-10       5.38269e-15       2.24195e-11       5.23533e-01       4.12394e-02       5.23533e-01      
 2.70000e-01       1.67980e-08       5.47387e-10       5.50462e-15       2.95561e-11       5.23533e-01       4.13011e-02       5.23533e-01      
 2.79000e-01       2.19163e-08       7.20636e-10       5.64584e-15       3.88629e-11       5.23533e-01       4.13814e-02       5.23533e-01      
 2.88000e-01       2.84815e-08       9.46216e-10       5.80769e-15       5.09470e-11       5.23533e-01       4.14856e-02       5.23533e-01      
 2.97000e-01       3.68500e-08       1.23871e-09       5.99129e-15       6.65588e-11       5.23533e-01       4.16199e-02       5.23533e-01      
 3.06000e-01       4.74441e-08       1.61619e-09       6.19752e-15       8.66143e-11       5.23533e-01       4.17920e-02       5.23533e-01      
 3.15000e-01       6.07553e-08       2.10084e-09       6.42692e-15       1.12214e-10       5.23533e-01       4.20110e-02       5.23533e-01      
 3.24000e-01       7.73450e-08       2.71961e-09       6.67969e-15       1.44660e-10       5.23533e-01       4.22875e-02       5.23533e-01      
 3.33000e-01       9.78424e-08       3.50477e-09       6.95566e-15       1.85460e-10       5.23533e-01       4.26335e-02       5.23533e-01      
 3.42000e-01       1.22937e-07       4.49456e-09       7.25423e-15       2.36327e-10       5.23533e-01       4.30623e-02       5.23533e-01      
 3.51000e-01       1.53367e-07       5.73364e-09       7.57445e-15       2.99159e-10       5.23533e-01       4.35880e-02       5.23533e-01      
 3.60000e-01       1.89905e-07       7.27349e-09       7.91495e-15       3.76012e-10       5.23533e-01       4.42255e-02       5.23533e-01      
 3.69000e-01       2.33337e-07       9.17262e-09       8.27402e-15       4.69048e-10       5.23533e-01       4.49893e-02       5.23533e-01      
 3.78000e-01       2.84444e-07       1.14966e-08       8.64963e-15       5.80486e-10       5.23533e-01       4.58934e-02       5.23533e-01      
 3.87000e-01       3.43982e-07       1.43179e-08       9.03946e-15       7.12534e-10       5.23533e-01       4.69502e-02       5.23533e-01      
 3.96000e-01       4.12673e-07       1.77157e-08       9.44100e-15       8.67338e-10       5.23533e-01       4.81703e-02       5.23533e-01      
 4.05000e-01       4.91201e-07       2.17755e-08       9.85155e-15       1.04693e-09       5.23533e-01       4.95622e-02       5.23533e-01      
 4.14000e-01       5.80224e-07       2.65888e-08       1.02684e-14       1.25319e-09       5.23533e-01       5.11319e-02       5.23533e-01      
 4.23000e-01       6.80395e-07       3.22530e-08       1.06886e-14       1.48788e-09       5.23533e-01       5.28832e-02       5.23533e-01      
 4.32000e-01       7.92395e-07       3.88714e-08       1.11096e-14       1.75258e-09       5.23533e-01       5.48181e-02       5.23533e-01      
 4.41000e-01       9.16966e-07       4.65538e-08       1.15286e-14       2.04880e-09       5.23533e-01       5.69371e-02       5.23533e-01      
 4.50000e-01       1.05493e-06       5.54170e-08       1.19433e-14       2.37798e-09       5.23533e-01       5.92399e-02       5.23533e-01      
 4.59000e-01       1.20722e-06       6.55856e-08       1.23512e-14       2.74152e-09       5.23533e-01       6.17255e-02       5.23533e-01      
 4.68000e-01       1.37485e-06       7.71930e-08       1.27503e-14       3.14084e-09       5.23533e-01       6.43930e-02       5.23533e-01      
 4.77000e-01       1.55893e-06       9.03822e-08       1.31389e-14       3.57743e-09       5.23533e-01       6.72415e-02       5.23533e-01      
 4.86000e-01       1.76060e-06       1.05307e-07       1.35153e-14       4.05282e-09       5.23533e-01       7.02703e-02       5.23533e-01      
 4.95000e-01       1.98102e-06       1.22129e-07       1.38785e-14       4.56859e-09       5.23533e-01       7.34791e-02       5.23533e-01      
 5.04000e-01       2.22130e-06       1.41024e-07       1.42273e-14       5.12641e-09       5.23533e-01       7.68675e-02       5.23533e-01      
 5.13000e-01       2.48246e-06       1.62175e-07       1.45612e-14       5.72798e-09       5.23533e-01       8.04354e-02       5.23533e-01      
 5.22000e-01       2.76539e-06       1.85774e-07       1.48795e-14       6.37501e-09       5.23533e-01       8.41823e-02       5.23533e-01      
 5.31000e-01       3.07083e-06       2.12020e-07       1.51821e-14       7.06922e-09       5.23533e-01       8.81077e-02       5.23533e-01      
 5.40000e-01       3.39929e-06       2.41118e-07       1.54689e-14       7.81229e-09       5.23533e-01       9.22104e-02       5.23533e-01      
 5.49000e-01       3.75108e-06       2.73277e-07       1.57401e-14       8.60586e-09       5.23533e-01       9.64890e-02       5.23533e-01      
 5.58000e-01       4.12627e-06       3.08708e-07       1.59958e-14       9.45151e-09       5.23533e-01       1.00941e-01       5.23533e-01      
 5.67000e-01       4.52471e-06       3.47620e-07       1.62365e-14       1.03507e-08       5.23533e-01       1.05564e-01       5.23533e-01      
 5.76000e-01       4.94600e-06       3.90221e-07       1.64627e-14       1.13049e-08       5.23533e-01       1.10355e-01       5.23533e-01      
 5.85000e-01       5.38954e-06       4.36714e-07       1.66749e-14       1.23153e-08       5.23533e-01       1.15308e-01       5.23533e-01      
 5.94000e-01       5.85452e-06       4.87297e-07       1.68737e-14       1.33831e-08       5.23533e-01       1.20420e-01       5.23533e-01      
 6.03000e-01       6.33999e-06       5.42157e-07       1.70597e-14       1.45096e-08       5.23533e-01       1.25686e-01       5.23533e-01      
 6.12000e-01       6.84482e-06       6.01475e-07       1.72337e-14       1.56956e-08       5.23533e-01       1.31099e-01       5.23533e-01      
 6.21000e-01       7.36780e-06       6.65419e-07       1.73963e-14       1.69421e-08       5.23533e-01       1.36653e-01       5.23533e-01      
 6.30000e-01       7.90761e-06       7.34146e-07       1.75482e-14       1.82502e-08       5.23533e-01       1.42343e-01       5.23533e-01      
 6.39000e-01       8.46289e-06       8.07802e-07       1.76901e-14       1.96205e-08       5.23533e-01       1.48161e-01       5.23533e-01      
 6.48000e-01       9.03226e-06       8.86520e-07       1.78226e-14       2.10540e-08       5.23533e-01       1.54102e-01       5.23533e-01      
 6.57000e-01       9.61434e-06       9.70421e-07       1.79463e-14       2.25514e-08       5.23533e-01       1.60157e-01       5.23533e-01      
 6.66000e-01       1.02078e-05       1.05961e-06       1.80618e-14       2.41136e-08       5.23533e-01       1.66322e-01       5.23533e-01      
 6.75000e-01       1.08112e-05       1.15419e-06       1.81698e-14       2.57415e-08       5.23533e-01       1.72589e-01       5.23533e-01      
 6.84000e-01       1.14234e-05       1.25424e-06       1.82707e-14       2.74359e-08       5.23533e-01       1.78952e-01       5.23533e-01      
 6.93000e-01       1.20432e-05       1.35984e-06       1.83651e-14       2.91977e-08       5.23533e-01       1.85404e-01       5.23533e-01      
 7.02000e-01       1.26694e-05       1.47104e-06       1.84535e-14       3.10279e-08       5.23533e-01       1.91941e-01       5.23533e-01      
 7.11000e-01       1.33010e-05       1.58790e-06       1.85363e-14       3.29277e-08       5.23533e-01       1.98556e-01       5.23533e-01      
 7.20000e-01       1.39369e-05       1.71047e-06       1.86139e-14       3.48982e-08       5.23533e-01       2.05244e-01       5.23533e-01      
 7.29000e-01       1.45764e-05       1.83878e-06       1.86868e-14       3.69407e-08       5.23533e-01       2.12000e-01       5.23533e-01      
 7.38000e-01       1.52187e-05       1.97285e-06       1.87553e-14       3.90565e-08       5.23533e-01       2.18819e-01       5.23533e-01      
 7.47000e-01       1.58629e-05       2.11272e-06       1.88197e-14       4.12472e-08       5.23533e-01       2.25696e-01       5.23533e-01      
 7.56000e-01       1.65084e-05       2.25839e-06       1.88804e-14       4.35145e-08       5.23533e-01       2.32629e-01       5.23533e-01      
 7.65000e-01       1.71547e-05       2.40987e-06       1.89376e-14       4.58601e-08       5.23533e-01       2.39612e-01       5.23533e-01      
 7.74000e-01       1.78011e-05       2.56717e-06       1.89916e-14       4.82859e-08       5.23533e-01       2.46642e-01       5.23533e-01      
 7.83000e-01       1.84473e-05       2.73029e-06       1.90427e-14       5.07941e-08       5.23533e-01       2.53717e-01       5.23533e-01      
 7.92000e-01       1.90929e-05       2.89922e-06       1.90911e-14       5.33870e-08       5.23533e-01       2.60832e-01       5.23533e-01      
 8.01000e-01       1.97373e-05       3.07396e-06       1.91370e-14       5.60671e-08       5.23533e-01       2.67985e-01       5.23533e-01      
 8.10000e-01       2.03804e-05       3.25449e-06       1.91805e-14       5.88370e-08       5.23533e-01       2.75174e-01       5.23533e-01      
 8.19000e-01       2.10219e-05       3.44080e-06       1.92219e-14       6.16996e-08       5.23533e-01       2.82396e-01       5.23533e-01      
 8.28000e-01       2.16614e-05       3.63288e-06       1.92613e-14       6.46580e-08       5.23533e-01       2.89648e-01       5.23533e-01      
 8.37000e-01       2.22988e-05       3.83070e-06       1.92989e-14       6.77155e-08       5.23533e-01       2.96930e-01       5.23533e-01      
 8.46000e-01       2.29338e-05       4.03425e-06       1.93348e-14       7.08757e-08       5.23533e-01       3.04240e-01       5.23533e-01      
 8.55000e-01       2.35663e-05       4.24350e-06       1.93692e-14       7.41426e-08       5.23533e-01       3.11575e-01       5.23533e-01      
 8.64000e-01       2.41961e-05       4.45843e-06       1.94020e-14       7.75201e-08       5.23533e-01       3.18934e-01       5.23533e-01      
 8.73000e-01       2.48230e-05       4.67902e-06       1.94335e-14       8.10128e-08       5.23533e-01       3.26316e-01       5.23533e-01      
 8.82000e-01       2.54469e-05       4.90524e-06       1.94638e-14       8.46254e-08       5.23533e-01       3.33720e-01       5.23533e-01      
 8.91000e-01       2.60678e-05       5.13706e-06       1.94929e-14       8.83630e-08       5.23533e-01       3.41144e-01       5.23533e-01      
 9.00000e-01       2.66854e-05       5.37445e-06       1.95209e-14       9.22311e-08       5.23533e-01       3.48588e-01       5.23533e-01      
 9.09000e-01       2.72997e-05       5.61738e-06       1.95479e-14       9.62355e-08       5.23533e-01       3.56051e-01       5.23533e-01      
 9.18000e-01       2.79106e-05       5.86583e-06       1.95739e-14       1.00383e-07       5.23533e-01       3.63532e-01       5.23533e-01      
 9.27000e-01       2.85180e-05       6.11977e-06       1.95991e-14       1.04679e-07       5.23533e-01       3.71030e-01       5.23533e-01      
 9.36000e-01       2.91217e-05       6.37915e-06       1.96235e-14       1.09132e-07       5.23533e-01       3.78544e-01       5.23533e-01      
 9.45000e-01       2.97217e-05       6.64394e-06       1.96471e-14       1.13750e-07       5.23533e-01       3.86074e-01       5.23533e-01      
 9.54000e-01       3.03180e-05       6.91413e-06       1.96700e-14       1.18541e-07       5.23533e-01       3.93620e-01       5.23533e-01      
 9.63000e-01       3.09103e-05       7.18966e-06       1.96922e-14       1.23513e-07       5.23533e-01       4.01181e-01       5.23533e-01      
 9.72000e-01       3.14987e-05       7.47050e-06       1.97139e-14       1.28677e-07       5.23533e-01       4.08757e-01       5.23533e-01      
 9.81000e-01       3.20830e-05       7.75662e-06       1.97349e-14       1.34044e-07       5.23533e-01       4.16347e-01       5.23533e-01      
 9.90000e-01       3.26632e-05       8.04798e-06       1.97554e-14       1.39623e-07       5.23533e-01       4.23951e-01       5.23533e-01      
 9.99000e-01       3.32392e-05       8.34455e-06       1.97755e-14       1.45428e-07       5.23533e-01       4.31568e-01       5.23533e-01      
 1.00800e+00       3.38108e-05       8.64627e-06       1.97951e-14       1.51472e-07       5.23533e-01       4.39199e-01       5.23533e-01      
 1.01700e+00       3.43781e-05       8.95313e-06       1.98142e-14       1.57768e-07       5.23533e-01       4.46843e-01       5.23533e-01      
 1.02600e+00       3.49408e-05       9.26507e-06       1.98330e-14       1.64333e-07       5.23533e-01       4.54500e-01       5.23533e-01      
 1.03500e+00       3.54990e-05       9.58205e-06       1.98514e-14       1.71183e-07       5.23533e-01       4.62170e-01       5.23533e-01      
 1.04400e+00       3.60525e-05       9.90403e-06       1.98694e-14       1.78336e-07       5.23533e-01       4.69853e-01       5.23533e-01      
 1.05300e+00       3.66013e-05       1.02310e-05       1.98872e-14       1.85811e-07       5.23533e-01       4.77548e-01       5.23533e-01      
 1.06200e+00       3.71452e-05       1.05628e-05       1.99047e-14       1.93630e-07       5.23533e-01       4.85256e-01       5.23533e-01      
 1.07100e+00       3.76842e-05       1.08996e-05       1.99219e-14       2.01815e-07       5.23533e-01       4.92976e-01       5.23533e-01      
 1.08000e+00       3.82181e-05       1.12411e-05       1.99389e-14       2.10394e-07       5.23533e-01       5.00709e-01       5.23533e-01      
 1.08900e+00       3.87468e-05       1.15875e-05       1.99557e-14       2.19391e-07       5.23533e-01       5.08454e-01       5.23533e-01      
 1.09800e+00       3.92703e-05       1.19386e-05       1.99723e-14       2.28839e-07       5.23533e-01       5.16211e-01       5.23533e-01      
 1.10700e+00       3.97885e-05       1.22943e-05       1.99887e-14       2.38769e-07       5.23533e-01       5.23980e-01       5.23533e-01      
 1.11600e+00       4.03012e-05       1.26547e-05       2.00050e-14       2.49218e-07       5.23533e-01       5.31762e-01       5.23533e-01      
 1.12500e+00       4.08084e-05       1.30197e-05       2.00212e-14       2.60225e-07       5.23533e-01       5.39555e-01       5.23533e-01      
 1.13400e+00       4.13099e-05       1.33893e-05       2.00373e-14       2.71834e-07       5.23533e-01       5.47361e-01       5.23533e-01      
 1.14300e+00       4.18056e-05       1.37633e-05       2.00534e-14       2.84091e-07       5.23533e-01       5.55180e-01       5.23533e-01      
 1.15200e+00       4.22954e-05       1.41418e-05       2.00694e-14       2.97049e-07       5.23533e-01       5.63010e-01       5.23533e-01      
 1.16100e+00       4.27791e-05       1.45246e-05       2.00853e-14       3.10766e-07       5.23533e-01       5.70853e-01       5.23533e-01      
 1.17000e+00       4.32567e-05       1.49118e-05       2.01013e-14       3.25306e-07       5.23533e-01       5.78708e-01       5.23533e-01      
 1.17900e+00       4.37280e-05       1.53032e-05       2.01173e-14       3.40738e-07       5.23533e-01       5.86576e-01       5.23533e-01      
 1.18800e+00       4.41929e-05       1.56989e-05       2.01333e-14       3.57141e-07       5.23533e-01       5.94456e-01       5.23533e-01      
 1.19700e+00       4.46513e-05       1.60987e-05       2.01494e-14       3.74599e-07       5.23533e-01       6.02348e-01       5.23533e-01      
 1.20600e+00       4.51029e-05       1.65026e-05       2.01656e-14       3.93210e-07       5.23533e-01       6.10253e-01       5.23533e-01      
 1.21500e+00       4.55476e-05       1.69105e-05       2.01820e-14       4.13077e-07       5.23533e-01       6.18171e-01       5.23533e-01      
