
dc (V)            getData("M0:gm    getData("M0:id    getData("M0:cg    getData("M0:gd    getData("M0:vt    getData("M0:vd    getData("M0:vt

 0.00000e+00       1.59366e-12       7.03487e-14       1.01272e-14       1.52614e-15       5.17947e-01       4.02675e-02       5.17947e-01      
 9.00000e-03       2.13657e-12       8.70156e-14       1.00814e-14       2.04624e-15       5.17947e-01       4.02675e-02       5.17947e-01      
 1.80000e-02       2.86431e-12       1.09360e-13       1.00371e-14       2.74349e-15       5.17947e-01       4.02675e-02       5.17947e-01      
 2.70000e-02       3.83975e-12       1.39314e-13       9.99434e-15       3.67822e-15       5.17947e-01       4.02676e-02       5.17947e-01      
 3.60000e-02       5.14707e-12       1.79468e-13       9.95320e-15       4.93122e-15       5.17947e-01       4.02676e-02       5.17947e-01      
 4.50000e-02       6.89903e-12       2.33292e-13       9.91372e-15       6.61077e-15       5.17947e-01       4.02676e-02       5.17947e-01      
 5.40000e-02       9.24660e-12       3.05432e-13       9.87600e-15       8.86192e-15       5.17947e-01       4.02677e-02       5.17947e-01      
 6.30000e-02       1.23919e-11       4.02117e-13       9.84015e-15       1.18789e-14       5.17947e-01       4.02678e-02       5.17947e-01      
 7.20000e-02       1.66052e-11       5.31681e-13       9.80632e-15       1.59220e-14       5.17947e-01       4.02679e-02       5.17947e-01      
 8.10000e-02       2.22484e-11       7.05288e-13       9.77469e-15       2.13393e-14       5.17947e-01       4.02681e-02       5.17947e-01      
 9.00000e-02       2.98050e-11       9.37877e-13       9.74551e-15       2.85971e-14       5.17947e-01       4.02683e-02       5.17947e-01      
 9.90000e-02       3.99213e-11       1.24944e-12       9.71905e-15       3.83190e-14       5.17947e-01       4.02687e-02       5.17947e-01      
 1.08000e-01       5.34603e-11       1.66670e-12       9.69569e-15       5.13392e-14       5.17947e-01       4.02691e-02       5.17947e-01      
 1.17000e-01       7.15739e-11       2.22541e-12       9.67586e-15       6.87727e-14       5.17947e-01       4.02696e-02       5.17947e-01      
 1.26000e-01       9.57979e-11       2.97331e-12       9.66012e-15       9.21093e-14       5.17947e-01       4.02704e-02       5.17947e-01      
 1.35000e-01       1.28178e-10       3.97417e-12       9.64912e-15       1.23338e-13       5.17947e-01       4.02714e-02       5.17947e-01      
 1.44000e-01       1.71436e-10       5.31306e-12       9.64366e-15       1.65113e-13       5.17947e-01       4.02727e-02       5.17947e-01      
 1.53000e-01       2.29188e-10       7.10339e-12       9.64469e-15       2.20970e-13       5.17947e-01       4.02745e-02       5.17947e-01      
 1.62000e-01       3.06210e-10       9.49609e-12       9.65281e-15       2.95616e-13       5.17947e-01       4.02768e-02       5.17947e-01      
 1.71000e-01       4.08848e-10       1.26918e-11       9.66992e-15       3.95305e-13       5.17947e-01       4.02800e-02       5.17947e-01      
 1.80000e-01       5.45474e-10       1.69571e-11       9.69760e-15       5.28344e-13       5.17947e-01       4.02842e-02       5.17947e-01      
 1.89000e-01       7.27107e-10       2.26450e-11       9.73768e-15       7.05732e-13       5.17947e-01       4.02899e-02       5.17947e-01      
 1.98000e-01       9.68209e-10       3.02229e-11       9.79227e-15       9.42015e-13       5.17947e-01       4.02974e-02       5.17947e-01      
 2.07000e-01       1.28769e-09       4.03074e-11       9.86374e-15       1.25637e-12       5.17947e-01       4.03074e-02       5.17947e-01      
 2.16000e-01       1.71016e-09       5.37096e-11       9.95476e-15       1.67400e-12       5.17947e-01       4.03206e-02       5.17947e-01      
 2.25000e-01       2.26748e-09       7.14938e-11       1.00682e-14       2.22792e-12       5.17947e-01       4.03382e-02       5.17947e-01      
 2.34000e-01       3.00066e-09       9.50506e-11       1.02073e-14       2.96119e-12       5.17947e-01       4.03615e-02       5.17947e-01      
 2.43000e-01       3.96212e-09       1.26189e-10       1.03753e-14       3.92966e-12       5.17947e-01       4.03922e-02       5.17947e-01      
 2.52000e-01       5.21830e-09       1.67251e-10       1.05756e-14       5.20543e-12       5.17947e-01       4.04327e-02       5.17947e-01      
 2.61000e-01       6.85268e-09       2.21251e-10       1.08116e-14       6.88080e-12       5.17947e-01       4.04857e-02       5.17947e-01      
 2.70000e-01       8.96900e-09       2.92043e-10       1.10865e-14       9.07315e-12       5.17947e-01       4.05551e-02       5.17947e-01      
 2.79000e-01       1.16947e-08       3.84519e-10       1.14033e-14       1.19302e-11       5.17947e-01       4.06454e-02       5.17947e-01      
 2.88000e-01       1.51842e-08       5.04836e-10       1.17646e-14       1.56361e-11       5.17947e-01       4.07622e-02       5.17947e-01      
 2.97000e-01       1.96218e-08       6.60675e-10       1.21725e-14       2.04172e-11       5.17947e-01       4.09126e-02       5.17947e-01      
 3.06000e-01       2.52243e-08       8.61520e-10       1.26286e-14       2.65484e-11       5.17947e-01       4.11049e-02       5.17947e-01      
 3.15000e-01       3.22414e-08       1.11895e-09       1.31335e-14       3.43577e-11       5.17947e-01       4.13488e-02       5.17947e-01      
 3.24000e-01       4.09559e-08       1.44695e-09       1.36873e-14       4.42299e-11       5.17947e-01       4.16556e-02       5.17947e-01      
 3.33000e-01       5.16813e-08       1.86219e-09       1.42890e-14       5.66075e-11       5.17947e-01       4.20379e-02       5.17947e-01      
 3.42000e-01       6.47571e-08       2.38427e-09       1.49371e-14       7.19884e-11       5.17947e-01       4.25093e-02       5.17947e-01      
 3.51000e-01       8.05426e-08       3.03594e-09       1.56289e-14       9.09197e-11       5.17947e-01       4.30844e-02       5.17947e-01      
 3.60000e-01       9.94085e-08       3.84327e-09       1.63612e-14       1.13988e-10       5.17947e-01       4.37776e-02       5.17947e-01      
 3.69000e-01       1.21728e-07       4.83566e-09       1.71299e-14       1.41805e-10       5.17947e-01       4.46031e-02       5.17947e-01      
 3.78000e-01       1.47866e-07       6.04583e-09       1.79305e-14       1.74995e-10       5.17947e-01       4.55738e-02       5.17947e-01      
 3.87000e-01       1.78175e-07       7.50976e-09       1.87576e-14       2.14175e-10       5.17947e-01       4.67011e-02       5.17947e-01      
 3.96000e-01       2.12992e-07       9.26651e-09       1.96060e-14       2.59946e-10       5.17947e-01       4.79942e-02       5.17947e-01      
 4.05000e-01       2.52637e-07       1.13581e-08       2.04696e-14       3.12878e-10       5.17947e-01       4.94600e-02       5.17947e-01      
 4.14000e-01       2.97427e-07       1.38294e-08       2.13427e-14       3.73510e-10       5.17947e-01       5.11032e-02       5.17947e-01      
 4.23000e-01       3.47689e-07       1.67282e-08       2.22194e-14       4.42349e-10       5.17947e-01       5.29265e-02       5.17947e-01      
 4.32000e-01       4.03771e-07       2.01053e-08       2.30941e-14       5.19874e-10       5.17947e-01       5.49310e-02       5.17947e-01      
 4.41000e-01       4.66060e-07       2.40147e-08       2.39613e-14       6.06550e-10       5.17947e-01       5.71167e-02       5.17947e-01      
 4.50000e-01       5.34993e-07       2.85143e-08       2.48161e-14       7.02837e-10       5.17947e-01       5.94831e-02       5.17947e-01      
 4.59000e-01       6.11052e-07       3.36659e-08       2.56539e-14       8.09197e-10       5.17947e-01       6.20292e-02       5.17947e-01      
 4.68000e-01       6.94763e-07       3.95362e-08       2.64709e-14       9.26108e-10       5.17947e-01       6.47544e-02       5.17947e-01      
 4.77000e-01       7.86683e-07       4.61963e-08       2.72636e-14       1.05407e-09       5.17947e-01       6.76579e-02       5.17947e-01      
 4.86000e-01       8.87379e-07       5.37228e-08       2.80291e-14       1.19359e-09       5.17947e-01       7.07396e-02       5.17947e-01      
 4.95000e-01       9.97407e-07       6.21971e-08       2.87653e-14       1.34522e-09       5.17947e-01       7.39992e-02       5.17947e-01      
 5.04000e-01       1.11729e-06       7.17057e-08       2.94704e-14       1.50950e-09       5.17947e-01       7.74368e-02       5.17947e-01      
 5.13000e-01       1.24750e-06       8.23393e-08       3.01434e-14       1.68699e-09       5.17947e-01       8.10521e-02       5.17947e-01      
 5.22000e-01       1.38842e-06       9.41928e-08       3.07835e-14       1.87825e-09       5.17947e-01       8.48448e-02       5.17947e-01      
 5.31000e-01       1.54037e-06       1.07364e-07       3.13905e-14       2.08383e-09       5.17947e-01       8.88142e-02       5.17947e-01      
 5.40000e-01       1.70354e-06       1.21953e-07       3.19646e-14       2.30428e-09       5.17947e-01       9.29591e-02       5.17947e-01      
 5.49000e-01       1.87802e-06       1.38062e-07       3.25062e-14       2.54011e-09       5.17947e-01       9.72776e-02       5.17947e-01      
 5.58000e-01       2.06380e-06       1.55791e-07       3.30161e-14       2.79181e-09       5.17947e-01       1.01767e-01       5.17947e-01      
 5.67000e-01       2.26073e-06       1.75243e-07       3.34952e-14       3.05986e-09       5.17947e-01       1.06425e-01       5.17947e-01      
 5.76000e-01       2.46858e-06       1.96517e-07       3.39446e-14       3.34468e-09       5.17947e-01       1.11247e-01       5.17947e-01      
 5.85000e-01       2.68701e-06       2.19710e-07       3.43657e-14       3.64667e-09       5.17947e-01       1.16229e-01       5.17947e-01      
 5.94000e-01       2.91560e-06       2.44914e-07       3.47597e-14       3.96622e-09       5.17947e-01       1.21366e-01       5.17947e-01      
 6.03000e-01       3.15383e-06       2.72219e-07       3.51280e-14       4.30365e-09       5.17947e-01       1.26652e-01       5.17947e-01      
 6.12000e-01       3.40116e-06       3.01710e-07       3.54721e-14       4.65929e-09       5.17947e-01       1.32083e-01       5.17947e-01      
 6.21000e-01       3.65697e-06       3.33466e-07       3.57934e-14       5.03342e-09       5.17947e-01       1.37650e-01       5.17947e-01      
 6.30000e-01       3.92063e-06       3.67559e-07       3.60934e-14       5.42634e-09       5.17947e-01       1.43349e-01       5.17947e-01      
 6.39000e-01       4.19148e-06       4.04059e-07       3.63733e-14       5.83831e-09       5.17947e-01       1.49173e-01       5.17947e-01      
 6.48000e-01       4.46887e-06       4.43025e-07       3.66345e-14       6.26959e-09       5.17947e-01       1.55115e-01       5.17947e-01      
 6.57000e-01       4.75213e-06       4.84516e-07       3.68783e-14       6.72043e-09       5.17947e-01       1.61168e-01       5.17947e-01      
 6.66000e-01       5.04064e-06       5.28580e-07       3.71060e-14       7.19111e-09       5.17947e-01       1.67327e-01       5.17947e-01      
 6.75000e-01       5.33379e-06       5.75261e-07       3.73187e-14       7.68190e-09       5.17947e-01       1.73585e-01       5.17947e-01      
 6.84000e-01       5.63097e-06       6.24600e-07       3.75175e-14       8.19309e-09       5.17947e-01       1.79935e-01       5.17947e-01      
 6.93000e-01       5.93166e-06       6.76629e-07       3.77034e-14       8.72499e-09       5.17947e-01       1.86372e-01       5.17947e-01      
 7.02000e-01       6.23532e-06       7.31379e-07       3.78774e-14       9.27794e-09       5.17947e-01       1.92891e-01       5.17947e-01      
 7.11000e-01       6.54150e-06       7.88873e-07       3.80405e-14       9.85230e-09       5.17947e-01       1.99485e-01       5.17947e-01      
 7.20000e-01       6.84974e-06       8.49132e-07       3.81934e-14       1.04485e-08       5.17947e-01       2.06151e-01       5.17947e-01      
 7.29000e-01       7.15965e-06       9.12173e-07       3.83369e-14       1.10669e-08       5.17947e-01       2.12882e-01       5.17947e-01      
 7.38000e-01       7.47087e-06       9.78009e-07       3.84718e-14       1.17080e-08       5.17947e-01       2.19675e-01       5.17947e-01      
 7.47000e-01       7.78308e-06       1.04665e-06       3.85988e-14       1.23723e-08       5.17947e-01       2.26526e-01       5.17947e-01      
 7.56000e-01       8.09598e-06       1.11811e-06       3.87184e-14       1.30605e-08       5.17947e-01       2.33430e-01       5.17947e-01      
 7.65000e-01       8.40930e-06       1.19238e-06       3.88312e-14       1.37731e-08       5.17947e-01       2.40384e-01       5.17947e-01      
 7.74000e-01       8.72282e-06       1.26947e-06       3.89377e-14       1.45108e-08       5.17947e-01       2.47385e-01       5.17947e-01      
 7.83000e-01       9.03632e-06       1.34939e-06       3.90385e-14       1.52743e-08       5.17947e-01       2.54429e-01       5.17947e-01      
 7.92000e-01       9.34963e-06       1.43213e-06       3.91340e-14       1.60644e-08       5.17947e-01       2.61514e-01       5.17947e-01      
 8.01000e-01       9.66257e-06       1.51768e-06       3.92246e-14       1.68821e-08       5.17947e-01       2.68637e-01       5.17947e-01      
 8.10000e-01       9.97501e-06       1.60605e-06       3.93106e-14       1.77281e-08       5.17947e-01       2.75796e-01       5.17947e-01      
 8.19000e-01       1.02868e-05       1.69723e-06       3.93924e-14       1.86037e-08       5.17947e-01       2.82989e-01       5.17947e-01      
 8.28000e-01       1.05979e-05       1.79121e-06       3.94704e-14       1.95097e-08       5.17947e-01       2.90213e-01       5.17947e-01      
 8.37000e-01       1.09081e-05       1.88799e-06       3.95447e-14       2.04475e-08       5.17947e-01       2.97467e-01       5.17947e-01      
 8.46000e-01       1.12173e-05       1.98756e-06       3.96158e-14       2.14182e-08       5.17947e-01       3.04749e-01       5.17947e-01      
 8.55000e-01       1.15255e-05       2.08990e-06       3.96838e-14       2.24233e-08       5.17947e-01       3.12058e-01       5.17947e-01      
 8.64000e-01       1.18327e-05       2.19501e-06       3.97489e-14       2.34643e-08       5.17947e-01       3.19393e-01       5.17947e-01      
 8.73000e-01       1.21386e-05       2.30288e-06       3.98114e-14       2.45427e-08       5.17947e-01       3.26751e-01       5.17947e-01      
 8.82000e-01       1.24433e-05       2.41350e-06       3.98714e-14       2.56602e-08       5.17947e-01       3.34133e-01       5.17947e-01      
 8.91000e-01       1.27468e-05       2.52686e-06       3.99291e-14       2.68188e-08       5.17947e-01       3.41537e-01       5.17947e-01      
 9.00000e-01       1.30488e-05       2.64294e-06       3.99847e-14       2.80204e-08       5.17947e-01       3.48962e-01       5.17947e-01      
 9.09000e-01       1.33495e-05       2.76173e-06       4.00384e-14       2.92671e-08       5.17947e-01       3.56407e-01       5.17947e-01      
 9.18000e-01       1.36488e-05       2.88323e-06       4.00902e-14       3.05613e-08       5.17947e-01       3.63871e-01       5.17947e-01      
 9.27000e-01       1.39465e-05       3.00741e-06       4.01403e-14       3.19055e-08       5.17947e-01       3.71355e-01       5.17947e-01      
 9.36000e-01       1.42427e-05       3.13426e-06       4.01889e-14       3.33024e-08       5.17947e-01       3.78857e-01       5.17947e-01      
 9.45000e-01       1.45374e-05       3.26377e-06       4.02359e-14       3.47549e-08       5.17947e-01       3.86377e-01       5.17947e-01      
 9.54000e-01       1.48304e-05       3.39593e-06       4.02816e-14       3.62661e-08       5.17947e-01       3.93914e-01       5.17947e-01      
 9.63000e-01       1.51217e-05       3.53071e-06       4.03259e-14       3.78395e-08       5.17947e-01       4.01468e-01       5.17947e-01      
 9.72000e-01       1.54113e-05       3.66811e-06       4.03691e-14       3.94787e-08       5.17947e-01       4.09039e-01       5.17947e-01      
 9.81000e-01       1.56991e-05       3.80811e-06       4.04112e-14       4.11878e-08       5.17947e-01       4.16626e-01       5.17947e-01      
 9.90000e-01       1.59852e-05       3.95069e-06       4.04522e-14       4.29712e-08       5.17947e-01       4.24229e-01       5.17947e-01      
 9.99000e-01       1.62694e-05       4.09584e-06       4.04923e-14       4.48334e-08       5.17947e-01       4.31847e-01       5.17947e-01      
 1.00800e+00       1.65517e-05       4.24354e-06       4.05315e-14       4.67796e-08       5.17947e-01       4.39481e-01       5.17947e-01      
 1.01700e+00       1.68321e-05       4.39376e-06       4.05698e-14       4.88155e-08       5.17947e-01       4.47130e-01       5.17947e-01      
 1.02600e+00       1.71105e-05       4.54651e-06       4.06073e-14       5.09470e-08       5.17947e-01       4.54794e-01       5.17947e-01      
 1.03500e+00       1.73868e-05       4.70175e-06       4.06442e-14       5.31807e-08       5.17947e-01       4.62474e-01       5.17947e-01      
 1.04400e+00       1.76611e-05       4.85946e-06       4.06803e-14       5.55240e-08       5.17947e-01       4.70167e-01       5.17947e-01      
 1.05300e+00       1.79333e-05       5.01964e-06       4.07159e-14       5.79846e-08       5.17947e-01       4.77876e-01       5.17947e-01      
 1.06200e+00       1.82033e-05       5.18226e-06       4.07509e-14       6.05712e-08       5.17947e-01       4.85599e-01       5.17947e-01      
 1.07100e+00       1.84711e-05       5.34729e-06       4.07854e-14       6.32933e-08       5.17947e-01       4.93337e-01       5.17947e-01      
 1.08000e+00       1.87366e-05       5.51473e-06       4.08194e-14       6.61611e-08       5.17947e-01       5.01089e-01       5.17947e-01      
 1.08900e+00       1.89998e-05       5.68454e-06       4.08530e-14       6.91862e-08       5.17947e-01       5.08855e-01       5.17947e-01      
 1.09800e+00       1.92606e-05       5.85672e-06       4.08863e-14       7.23809e-08       5.17947e-01       5.16636e-01       5.17947e-01      
 1.10700e+00       1.95190e-05       6.03123e-06       4.09192e-14       7.57592e-08       5.17947e-01       5.24431e-01       5.17947e-01      
 1.11600e+00       1.97750e-05       6.20805e-06       4.09518e-14       7.93360e-08       5.17947e-01       5.32240e-01       5.17947e-01      
 1.12500e+00       2.00284e-05       6.38717e-06       4.09842e-14       8.31284e-08       5.17947e-01       5.40063e-01       5.17947e-01      
 1.13400e+00       2.02792e-05       6.56856e-06       4.10163e-14       8.71547e-08       5.17947e-01       5.47901e-01       5.17947e-01      
 1.14300e+00       2.05274e-05       6.75219e-06       4.10484e-14       9.14354e-08       5.17947e-01       5.55753e-01       5.17947e-01      
 1.15200e+00       2.07729e-05       6.93804e-06       4.10802e-14       9.59934e-08       5.17947e-01       5.63619e-01       5.17947e-01      
 1.16100e+00       2.10157e-05       7.12609e-06       4.11120e-14       1.00854e-07       5.17947e-01       5.71500e-01       5.17947e-01      
 1.17000e+00       2.12556e-05       7.31632e-06       4.11438e-14       1.06045e-07       5.17947e-01       5.79394e-01       5.17947e-01      
 1.17900e+00       2.14926e-05       7.50868e-06       4.11756e-14       1.11598e-07       5.17947e-01       5.87304e-01       5.17947e-01      
 1.18800e+00       2.17267e-05       7.70317e-06       4.12074e-14       1.17547e-07       5.17947e-01       5.95227e-01       5.17947e-01      
 1.19700e+00       2.19577e-05       7.89976e-06       4.12393e-14       1.23931e-07       5.17947e-01       6.03165e-01       5.17947e-01      
 1.20600e+00       2.21856e-05       8.09840e-06       4.12714e-14       1.30794e-07       5.17947e-01       6.11117e-01       5.17947e-01      
 1.21500e+00       2.24104e-05       8.29909e-06       4.13036e-14       1.38184e-07       5.17947e-01       6.19084e-01       5.17947e-01      
