
dc (V)            getData("M0:gm    getData("M0:id    getData("M0:cg    getData("M0:gd    getData("M0:vt    getData("M0:vd    getData("M0:vt

 0.00000e+00       1.10692e-12       5.53623e-14       1.48067e-14       8.08900e-16       5.16069e-01       4.00458e-02       5.16069e-01      
 9.00000e-03       1.48464e-12       6.69413e-14       1.47387e-14       1.08502e-15       5.16069e-01       4.00459e-02       5.16069e-01      
 1.80000e-02       1.99116e-12       8.24711e-14       1.46730e-14       1.45536e-15       5.16069e-01       4.00459e-02       5.16069e-01      
 2.70000e-02       2.67036e-12       1.03299e-13       1.46097e-14       1.95203e-15       5.16069e-01       4.00459e-02       5.16069e-01      
 3.60000e-02       3.58104e-12       1.31230e-13       1.45487e-14       2.61811e-15       5.16069e-01       4.00460e-02       5.16069e-01      
 4.50000e-02       4.80196e-12       1.68686e-13       1.44903e-14       3.51130e-15       5.16069e-01       4.00460e-02       5.16069e-01      
 5.40000e-02       6.43862e-12       2.18909e-13       1.44345e-14       4.70897e-15       5.16069e-01       4.00461e-02       5.16069e-01      
 6.30000e-02       8.63229e-12       2.86247e-13       1.43816e-14       6.31476e-15       5.16069e-01       4.00462e-02       5.16069e-01      
 7.20000e-02       1.15721e-11       3.76522e-13       1.43316e-14       8.46752e-15       5.16069e-01       4.00463e-02       5.16069e-01      
 8.10000e-02       1.55111e-11       4.97534e-13       1.42851e-14       1.13532e-14       5.16069e-01       4.00465e-02       5.16069e-01      
 9.00000e-02       2.07877e-11       6.59723e-13       1.42422e-14       1.52209e-14       5.16069e-01       4.00467e-02       5.16069e-01      
 9.90000e-02       2.78544e-11       8.77067e-13       1.42035e-14       2.04037e-14       5.16069e-01       4.00471e-02       5.16069e-01      
 1.08000e-01       3.73156e-11       1.16827e-12       1.41695e-14       2.73476e-14       5.16069e-01       4.00475e-02       5.16069e-01      
 1.17000e-01       4.99781e-11       1.55833e-12       1.41408e-14       3.66487e-14       5.16069e-01       4.00481e-02       5.16069e-01      
 1.26000e-01       6.69182e-11       2.08067e-12       1.41184e-14       4.91040e-14       5.16069e-01       4.00488e-02       5.16069e-01      
 1.35000e-01       8.95696e-11       2.77994e-12       1.41033e-14       6.57777e-14       5.16069e-01       4.00499e-02       5.16069e-01      
 1.44000e-01       1.19840e-10       3.71572e-12       1.40966e-14       8.80899e-14       5.16069e-01       4.00513e-02       5.16069e-01      
 1.53000e-01       1.60265e-10       4.96745e-12       1.40998e-14       1.17934e-13       5.16069e-01       4.00531e-02       5.16069e-01      
 1.62000e-01       2.14193e-10       6.64088e-12       1.41139e-14       1.57830e-13       5.16069e-01       4.00556e-02       5.16069e-01      
 1.71000e-01       2.86075e-10       8.87664e-12       1.41417e-14       2.11128e-13       5.16069e-01       4.00589e-02       5.16069e-01      
 1.80000e-01       3.81780e-10       1.18615e-11       1.41857e-14       2.82274e-13       5.16069e-01       4.00633e-02       5.16069e-01      
 1.89000e-01       5.09034e-10       1.58431e-11       1.42487e-14       3.77164e-13       5.16069e-01       4.00692e-02       5.16069e-01      
 1.98000e-01       6.77974e-10       2.11489e-11       1.43338e-14       5.03585e-13       5.16069e-01       4.00770e-02       5.16069e-01      
 2.07000e-01       9.01849e-10       2.82110e-11       1.44447e-14       6.71810e-13       5.16069e-01       4.00875e-02       5.16069e-01      
 2.16000e-01       1.19790e-09       3.75982e-11       1.45855e-14       8.95334e-13       5.16069e-01       4.01013e-02       5.16069e-01      
 2.25000e-01       1.58842e-09       5.00559e-11       1.47604e-14       1.19183e-12       5.16069e-01       4.01197e-02       5.16069e-01      
 2.34000e-01       2.10209e-09       6.65583e-11       1.49743e-14       1.58434e-12       5.16069e-01       4.01440e-02       5.16069e-01      
 2.43000e-01       2.77554e-09       8.83719e-11       1.52320e-14       2.10272e-12       5.16069e-01       4.01761e-02       5.16069e-01      
 2.52000e-01       3.65513e-09       1.17135e-10       1.55388e-14       2.78550e-12       5.16069e-01       4.02184e-02       5.16069e-01      
 2.61000e-01       4.79901e-09       1.54956e-10       1.58995e-14       3.68195e-12       5.16069e-01       4.02738e-02       5.16069e-01      
 2.70000e-01       6.27933e-09       2.04525e-10       1.63189e-14       4.85464e-12       5.16069e-01       4.03462e-02       5.16069e-01      
 2.79000e-01       8.18453e-09       2.69256e-10       1.68015e-14       6.38221e-12       5.16069e-01       4.04404e-02       5.16069e-01      
 2.88000e-01       1.06215e-08       3.53440e-10       1.73509e-14       8.36246e-12       5.16069e-01       4.05622e-02       5.16069e-01      
 2.97000e-01       1.37177e-08       4.62419e-10       1.79703e-14       1.09155e-11       5.16069e-01       4.07189e-02       5.16069e-01      
 3.06000e-01       1.76220e-08       6.02780e-10       1.86614e-14       1.41865e-11       5.16069e-01       4.09190e-02       5.16069e-01      
 3.15000e-01       2.25060e-08       7.82552e-10       1.94254e-14       1.83486e-11       5.16069e-01       4.11725e-02       5.16069e-01      
 3.24000e-01       2.85630e-08       1.01141e-09       2.02619e-14       2.36039e-11       5.16069e-01       4.14909e-02       5.16069e-01      
 3.33000e-01       3.60063e-08       1.30084e-09       2.11693e-14       3.01843e-11       5.16069e-01       4.18870e-02       5.16069e-01      
 3.42000e-01       4.50663e-08       1.66437e-09       2.21450e-14       3.83493e-11       5.16069e-01       4.23746e-02       5.16069e-01      
 3.51000e-01       5.59853e-08       2.11761e-09       2.31850e-14       4.83833e-11       5.16069e-01       4.29682e-02       5.16069e-01      
 3.60000e-01       6.90125e-08       2.67843e-09       2.42840e-14       6.05897e-11       5.16069e-01       4.36821e-02       5.16069e-01      
 3.69000e-01       8.43972e-08       3.36691e-09       2.54359e-14       7.52841e-11       5.16069e-01       4.45303e-02       5.16069e-01      
 3.78000e-01       1.02383e-07       4.20538e-09       2.66337e-14       9.27869e-11       5.16069e-01       4.55255e-02       5.16069e-01      
 3.87000e-01       1.23205e-07       5.21832e-09       2.78694e-14       1.13415e-10       5.16069e-01       4.66784e-02       5.16069e-01      
 3.96000e-01       1.47086e-07       6.43225e-09       2.91348e-14       1.37476e-10       5.16069e-01       4.79979e-02       5.16069e-01      
 4.05000e-01       1.74242e-07       7.87570e-09       3.04213e-14       1.65263e-10       5.16069e-01       4.94904e-02       5.16069e-01      
 4.14000e-01       2.04888e-07       9.57909e-09       3.17199e-14       1.97054e-10       5.16069e-01       5.11601e-02       5.16069e-01      
 4.23000e-01       2.39245e-07       1.15748e-08       3.30221e-14       2.33114e-10       5.16069e-01       5.30094e-02       5.16069e-01      
 4.32000e-01       2.77554e-07       1.38973e-08       3.43196e-14       2.73694e-10       5.16069e-01       5.50391e-02       5.16069e-01      
 4.41000e-01       3.20086e-07       1.65835e-08       3.56043e-14       3.19042e-10       5.16069e-01       5.72491e-02       5.16069e-01      
 4.50000e-01       3.67141e-07       1.96725e-08       3.68690e-14       3.69407e-10       5.16069e-01       5.96388e-02       5.16069e-01      
 4.59000e-01       4.19052e-07       2.32066e-08       3.81072e-14       4.25041e-10       5.16069e-01       6.22074e-02       5.16069e-01      
 4.68000e-01       4.76183e-07       2.72311e-08       3.93131e-14       4.86206e-10       5.16069e-01       6.49541e-02       5.16069e-01      
 4.77000e-01       5.38911e-07       3.17946e-08       4.04819e-14       5.53175e-10       5.16069e-01       6.78786e-02       5.16069e-01      
 4.86000e-01       6.07620e-07       3.69494e-08       4.16095e-14       6.26234e-10       5.16069e-01       7.09805e-02       5.16069e-01      
 4.95000e-01       6.82685e-07       4.27509e-08       4.26928e-14       7.05679e-10       5.16069e-01       7.42599e-02       5.16069e-01      
 5.04000e-01       7.64454e-07       4.92578e-08       4.37295e-14       7.91812e-10       5.16069e-01       7.77167e-02       5.16069e-01      
 5.13000e-01       8.53235e-07       5.65321e-08       4.47180e-14       8.84942e-10       5.16069e-01       8.13508e-02       5.16069e-01      
 5.22000e-01       9.49285e-07       6.46379e-08       4.56575e-14       9.85375e-10       5.16069e-01       8.51618e-02       5.16069e-01      
 5.31000e-01       1.05280e-06       7.36416e-08       4.65477e-14       1.09342e-09       5.16069e-01       8.91490e-02       5.16069e-01      
 5.40000e-01       1.16389e-06       8.36110e-08       4.73891e-14       1.20936e-09       5.16069e-01       9.33110e-02       5.16069e-01      
 5.49000e-01       1.28262e-06       9.46146e-08       4.81824e-14       1.33350e-09       5.16069e-01       9.76459e-02       5.16069e-01      
 5.58000e-01       1.40896e-06       1.06721e-07       4.89288e-14       1.46609e-09       5.16069e-01       1.02151e-01       5.16069e-01      
 5.67000e-01       1.54280e-06       1.19998e-07       4.96298e-14       1.60740e-09       5.16069e-01       1.06824e-01       5.16069e-01      
 5.76000e-01       1.68397e-06       1.34513e-07       5.02870e-14       1.75766e-09       5.16069e-01       1.11659e-01       5.16069e-01      
 5.85000e-01       1.83223e-06       1.50331e-07       5.09025e-14       1.91709e-09       5.16069e-01       1.16654e-01       5.16069e-01      
 5.94000e-01       1.98729e-06       1.67514e-07       5.14782e-14       2.08590e-09       5.16069e-01       1.21802e-01       5.16069e-01      
 6.03000e-01       2.14880e-06       1.86122e-07       5.20163e-14       2.26428e-09       5.16069e-01       1.27099e-01       5.16069e-01      
 6.12000e-01       2.31638e-06       2.06211e-07       5.25188e-14       2.45240e-09       5.16069e-01       1.32538e-01       5.16069e-01      
 6.21000e-01       2.48962e-06       2.27834e-07       5.29879e-14       2.65043e-09       5.16069e-01       1.38113e-01       5.16069e-01      
 6.30000e-01       2.66809e-06       2.51039e-07       5.34257e-14       2.85852e-09       5.16069e-01       1.43818e-01       5.16069e-01      
 6.39000e-01       2.85134e-06       2.75873e-07       5.38342e-14       3.07682e-09       5.16069e-01       1.49647e-01       5.16069e-01      
 6.48000e-01       3.03894e-06       3.02377e-07       5.42154e-14       3.30548e-09       5.16069e-01       1.55592e-01       5.16069e-01      
 6.57000e-01       3.23045e-06       3.30586e-07       5.45712e-14       3.54465e-09       5.16069e-01       1.61648e-01       5.16069e-01      
 6.66000e-01       3.42545e-06       3.60535e-07       5.49033e-14       3.79447e-09       5.16069e-01       1.67808e-01       5.16069e-01      
 6.75000e-01       3.62353e-06       3.92254e-07       5.52136e-14       4.05512e-09       5.16069e-01       1.74066e-01       5.16069e-01      
 6.84000e-01       3.82429e-06       4.25767e-07       5.55036e-14       4.32674e-09       5.16069e-01       1.80416e-01       5.16069e-01      
 6.93000e-01       4.02738e-06       4.61098e-07       5.57749e-14       4.60953e-09       5.16069e-01       1.86851e-01       5.16069e-01      
 7.02000e-01       4.23246e-06       4.98266e-07       5.60288e-14       4.90367e-09       5.16069e-01       1.93367e-01       5.16069e-01      
 7.11000e-01       4.43920e-06       5.37287e-07       5.62666e-14       5.20938e-09       5.16069e-01       1.99958e-01       5.16069e-01      
 7.20000e-01       4.64734e-06       5.78175e-07       5.64897e-14       5.52688e-09       5.16069e-01       2.06619e-01       5.16069e-01      
 7.29000e-01       4.85659e-06       6.20942e-07       5.66992e-14       5.85642e-09       5.16069e-01       2.13346e-01       5.16069e-01      
 7.38000e-01       5.06673e-06       6.65597e-07       5.68960e-14       6.19829e-09       5.16069e-01       2.20134e-01       5.16069e-01      
 7.47000e-01       5.27754e-06       7.12146e-07       5.70813e-14       6.55278e-09       5.16069e-01       2.26979e-01       5.16069e-01      
 7.56000e-01       5.48883e-06       7.60594e-07       5.72558e-14       6.92022e-09       5.16069e-01       2.33877e-01       5.16069e-01      
 7.65000e-01       5.70042e-06       8.10945e-07       5.74205e-14       7.30098e-09       5.16069e-01       2.40825e-01       5.16069e-01      
 7.74000e-01       5.91217e-06       8.63202e-07       5.75761e-14       7.69544e-09       5.16069e-01       2.47819e-01       5.16069e-01      
 7.83000e-01       6.12393e-06       9.17365e-07       5.77232e-14       8.10403e-09       5.16069e-01       2.54857e-01       5.16069e-01      
 7.92000e-01       6.33559e-06       9.73433e-07       5.78626e-14       8.52722e-09       5.16069e-01       2.61935e-01       5.16069e-01      
 8.01000e-01       6.54704e-06       1.03140e-06       5.79949e-14       8.96552e-09       5.16069e-01       2.69052e-01       5.16069e-01      
 8.10000e-01       6.75818e-06       1.09128e-06       5.81206e-14       9.41948e-09       5.16069e-01       2.76204e-01       5.16069e-01      
 8.19000e-01       6.96892e-06       1.15305e-06       5.82401e-14       9.88968e-09       5.16069e-01       2.83390e-01       5.16069e-01      
 8.28000e-01       7.17920e-06       1.21672e-06       5.83540e-14       1.03768e-08       5.16069e-01       2.90609e-01       5.16069e-01      
 8.37000e-01       7.38895e-06       1.28227e-06       5.84627e-14       1.08815e-08       5.16069e-01       2.97857e-01       5.16069e-01      
 8.46000e-01       7.59809e-06       1.34972e-06       5.85666e-14       1.14045e-08       5.16069e-01       3.05133e-01       5.16069e-01      
 8.55000e-01       7.80659e-06       1.41904e-06       5.86659e-14       1.19467e-08       5.16069e-01       3.12437e-01       5.16069e-01      
 8.64000e-01       8.01439e-06       1.49023e-06       5.87612e-14       1.25089e-08       5.16069e-01       3.19766e-01       5.16069e-01      
 8.73000e-01       8.22145e-06       1.56330e-06       5.88526e-14       1.30921e-08       5.16069e-01       3.27120e-01       5.16069e-01      
 8.82000e-01       8.42772e-06       1.63822e-06       5.89404e-14       1.36973e-08       5.16069e-01       3.34497e-01       5.16069e-01      
 8.91000e-01       8.63317e-06       1.71499e-06       5.90249e-14       1.43257e-08       5.16069e-01       3.41897e-01       5.16069e-01      
 9.00000e-01       8.83775e-06       1.79361e-06       5.91063e-14       1.49783e-08       5.16069e-01       3.49319e-01       5.16069e-01      
 9.09000e-01       9.04143e-06       1.87407e-06       5.91848e-14       1.56566e-08       5.16069e-01       3.56761e-01       5.16069e-01      
 9.18000e-01       9.24419e-06       1.95635e-06       5.92607e-14       1.63619e-08       5.16069e-01       3.64223e-01       5.16069e-01      
 9.27000e-01       9.44599e-06       2.04046e-06       5.93341e-14       1.70957e-08       5.16069e-01       3.71705e-01       5.16069e-01      
 9.36000e-01       9.64679e-06       2.12638e-06       5.94052e-14       1.78597e-08       5.16069e-01       3.79206e-01       5.16069e-01      
 9.45000e-01       9.84657e-06       2.21410e-06       5.94741e-14       1.86555e-08       5.16069e-01       3.86725e-01       5.16069e-01      
 9.54000e-01       1.00453e-05       2.30361e-06       5.95410e-14       1.94853e-08       5.16069e-01       3.94262e-01       5.16069e-01      
 9.63000e-01       1.02429e-05       2.39491e-06       5.96061e-14       2.03510e-08       5.16069e-01       4.01816e-01       5.16069e-01      
 9.72000e-01       1.04395e-05       2.48798e-06       5.96694e-14       2.12549e-08       5.16069e-01       4.09388e-01       5.16069e-01      
 9.81000e-01       1.06348e-05       2.58282e-06       5.97311e-14       2.21995e-08       5.16069e-01       4.16976e-01       5.16069e-01      
 9.90000e-01       1.08291e-05       2.67941e-06       5.97913e-14       2.31874e-08       5.16069e-01       4.24581e-01       5.16069e-01      
 9.99000e-01       1.10221e-05       2.77774e-06       5.98501e-14       2.42216e-08       5.16069e-01       4.32202e-01       5.16069e-01      
 1.00800e+00       1.12138e-05       2.87780e-06       5.99075e-14       2.53053e-08       5.16069e-01       4.39840e-01       5.16069e-01      
 1.01700e+00       1.14043e-05       2.97958e-06       5.99638e-14       2.64418e-08       5.16069e-01       4.47493e-01       5.16069e-01      
 1.02600e+00       1.15935e-05       3.08307e-06       6.00189e-14       2.76351e-08       5.16069e-01       4.55162e-01       5.16069e-01      
 1.03500e+00       1.17814e-05       3.18826e-06       6.00730e-14       2.88892e-08       5.16069e-01       4.62846e-01       5.16069e-01      
 1.04400e+00       1.19680e-05       3.29514e-06       6.01261e-14       3.02086e-08       5.16069e-01       4.70546e-01       5.16069e-01      
 1.05300e+00       1.21531e-05       3.40368e-06       6.01783e-14       3.15984e-08       5.16069e-01       4.78261e-01       5.16069e-01      
 1.06200e+00       1.23368e-05       3.51389e-06       6.02297e-14       3.30640e-08       5.16069e-01       4.85991e-01       5.16069e-01      
 1.07100e+00       1.25191e-05       3.62574e-06       6.02803e-14       3.46114e-08       5.16069e-01       4.93736e-01       5.16069e-01      
 1.08000e+00       1.26998e-05       3.73923e-06       6.03303e-14       3.62471e-08       5.16069e-01       5.01497e-01       5.16069e-01      
 1.08900e+00       1.28791e-05       3.85433e-06       6.03797e-14       3.79785e-08       5.16069e-01       5.09272e-01       5.16069e-01      
 1.09800e+00       1.30567e-05       3.97104e-06       6.04285e-14       3.98135e-08       5.16069e-01       5.17062e-01       5.16069e-01      
 1.10700e+00       1.32328e-05       4.08935e-06       6.04768e-14       4.17611e-08       5.16069e-01       5.24867e-01       5.16069e-01      
 1.11600e+00       1.34073e-05       4.20923e-06       6.05247e-14       4.38309e-08       5.16069e-01       5.32687e-01       5.16069e-01      
 1.12500e+00       1.35800e-05       4.33067e-06       6.05722e-14       4.60338e-08       5.16069e-01       5.40522e-01       5.16069e-01      
 1.13400e+00       1.37511e-05       4.45367e-06       6.06194e-14       4.83818e-08       5.16069e-01       5.48372e-01       5.16069e-01      
 1.14300e+00       1.39204e-05       4.57819e-06       6.06663e-14       5.08882e-08       5.16069e-01       5.56237e-01       5.16069e-01      
 1.15200e+00       1.40880e-05       4.70423e-06       6.07131e-14       5.35679e-08       5.16069e-01       5.64116e-01       5.16069e-01      
 1.16100e+00       1.42537e-05       4.83177e-06       6.07598e-14       5.64374e-08       5.16069e-01       5.72011e-01       5.16069e-01      
 1.17000e+00       1.44175e-05       4.96079e-06       6.08063e-14       5.95150e-08       5.16069e-01       5.79920e-01       5.16069e-01      
 1.17900e+00       1.45795e-05       5.09128e-06       6.08529e-14       6.28213e-08       5.16069e-01       5.87844e-01       5.16069e-01      
 1.18800e+00       1.47394e-05       5.22321e-06       6.08996e-14       6.63791e-08       5.16069e-01       5.95783e-01       5.16069e-01      
 1.19700e+00       1.48974e-05       5.35658e-06       6.09463e-14       7.02142e-08       5.16069e-01       6.03737e-01       5.16069e-01      
 1.20600e+00       1.50533e-05       5.49136e-06       6.09933e-14       7.43552e-08       5.16069e-01       6.11706e-01       5.16069e-01      
 1.21500e+00       1.52071e-05       5.62754e-06       6.10405e-14       7.88344e-08       5.16069e-01       6.19690e-01       5.16069e-01      
