
dc (V)            getData("M0:gm    getData("M0:id    getData("M0:cg    getData("M0:gd    getData("M0:vt    getData("M0:vd    getData("M0:vt

 0.00000e+00       1.17716e-12       5.50461e-14       3.00704e-15       1.14632e-15       4.87249e-01       3.95340e-02       4.87249e-01      
 9.00000e-03       1.57824e-12       6.64726e-14       2.99484e-15       1.53709e-15       4.87249e-01       3.95340e-02       4.87249e-01      
 1.80000e-02       2.11586e-12       8.21911e-14       2.98316e-15       2.06098e-15       4.87249e-01       3.95341e-02       4.87249e-01      
 2.70000e-02       2.83642e-12       1.03621e-13       2.97202e-15       2.76331e-15       4.87249e-01       3.95341e-02       4.87249e-01      
 3.60000e-02       3.80208e-12       1.32667e-13       2.96146e-15       3.70478e-15       4.87249e-01       3.95342e-02       4.87249e-01      
 4.50000e-02       5.09603e-12       1.71885e-13       2.95154e-15       4.96671e-15       4.87249e-01       3.95343e-02       4.87249e-01      
 5.40000e-02       6.82960e-12       2.24700e-13       2.94231e-15       6.65800e-15       4.87249e-01       3.95345e-02       4.87249e-01      
 6.30000e-02       9.15176e-12       2.95703e-13       2.93386e-15       8.92448e-15       4.87249e-01       3.95346e-02       4.87249e-01      
 7.20000e-02       1.22617e-11       3.91040e-13       2.92628e-15       1.19613e-14       4.87249e-01       3.95349e-02       4.87249e-01      
 8.10000e-02       1.64256e-11       5.18941e-13       2.91968e-15       1.60298e-14       4.87249e-01       3.95352e-02       4.87249e-01      
 9.00000e-02       2.19992e-11       6.90413e-13       2.91422e-15       2.14792e-14       4.87249e-01       3.95357e-02       4.87249e-01      
 9.90000e-02       2.94571e-11       9.20179e-13       2.91007e-15       2.87767e-14       4.87249e-01       3.95362e-02       4.87249e-01      
 1.08000e-01       3.94324e-11       1.22791e-12       2.90745e-15       3.85464e-14       4.87249e-01       3.95370e-02       4.87249e-01      
 1.17000e-01       5.27687e-11       1.63990e-12       2.90661e-15       5.16220e-14       4.87249e-01       3.95381e-02       4.87249e-01      
 1.26000e-01       7.05867e-11       2.19120e-12       2.90781e-15       6.91154e-14       4.87249e-01       3.95395e-02       4.87249e-01      
 1.35000e-01       9.43746e-11       2.92854e-12       2.91138e-15       9.25081e-14       4.87249e-01       3.95414e-02       4.87249e-01      
 1.44000e-01       1.26111e-10       3.91417e-12       2.91785e-15       1.23773e-13       4.87249e-01       3.95439e-02       4.87249e-01      
 1.53000e-01       1.68414e-10       5.23089e-12       2.92774e-15       1.65534e-13       4.87249e-01       3.95472e-02       4.87249e-01      
 1.62000e-01       2.24743e-10       6.98868e-12       2.94163e-15       2.21273e-13       4.87249e-01       3.95517e-02       4.87249e-01      
 1.71000e-01       2.99655e-10       9.33341e-12       2.96020e-15       2.95608e-13       4.87249e-01       3.95577e-02       4.87249e-01      
 1.80000e-01       3.99139e-10       1.24581e-11       2.98419e-15       3.94642e-13       4.87249e-01       3.95657e-02       4.87249e-01      
 1.89000e-01       5.31033e-10       1.66178e-11       3.01445e-15       5.26430e-13       4.87249e-01       3.95763e-02       4.87249e-01      
 1.98000e-01       7.05557e-10       2.21483e-11       3.05188e-15       7.01560e-13       4.87249e-01       3.95904e-02       4.87249e-01      
 2.07000e-01       9.35969e-10       2.94904e-11       3.09746e-15       9.33914e-13       4.87249e-01       3.96090e-02       4.87249e-01      
 2.16000e-01       1.23938e-09       3.92213e-11       3.15220e-15       1.24160e-12       4.87249e-01       3.96338e-02       4.87249e-01      
 2.25000e-01       1.63771e-09       5.20927e-11       3.21713e-15       1.64814e-12       4.87249e-01       3.96664e-02       4.87249e-01      
 2.34000e-01       2.15886e-09       6.90801e-11       3.29327e-15       2.18389e-12       4.87249e-01       3.97095e-02       4.87249e-01      
 2.43000e-01       2.83806e-09       9.14419e-11       3.38157e-15       2.88778e-12       4.87249e-01       3.97660e-02       4.87249e-01      
 2.52000e-01       3.71929e-09       1.20792e-10       3.48289e-15       3.80933e-12       4.87249e-01       3.98400e-02       4.87249e-01      
 2.61000e-01       4.85697e-09       1.59185e-10       3.59797e-15       5.01090e-12       4.87249e-01       3.99363e-02       4.87249e-01      
 2.70000e-01       6.31759e-09       2.09221e-10       3.72737e-15       6.57023e-12       4.87249e-01       4.00612e-02       4.87249e-01      
 2.79000e-01       8.18129e-09       2.74158e-10       3.87145e-15       8.58294e-12       4.87249e-01       4.02222e-02       4.87249e-01      
 2.88000e-01       1.05433e-08       3.58040e-10       4.03035e-15       1.11650e-11       4.87249e-01       4.04284e-02       4.87249e-01      
 2.97000e-01       1.35150e-08       4.65844e-10       4.20395e-15       1.44545e-11       4.87249e-01       4.06906e-02       4.87249e-01      
 3.06000e-01       1.72244e-08       6.03623e-10       4.39190e-15       1.86131e-11       4.87249e-01       4.10211e-02       4.87249e-01      
 3.15000e-01       2.18158e-08       7.78657e-10       4.59358e-15       2.38254e-11       4.87249e-01       4.14340e-02       4.87249e-01      
 3.24000e-01       2.74484e-08       9.99592e-10       4.80812e-15       3.02976e-11       4.87249e-01       4.19446e-02       4.87249e-01      
 3.33000e-01       3.42940e-08       1.27657e-09       5.03444e-15       3.82529e-11       4.87249e-01       4.25691e-02       4.87249e-01      
 3.42000e-01       4.25326e-08       1.62131e-09       5.27122e-15       4.79266e-11       4.87249e-01       4.33242e-02       4.87249e-01      
 3.51000e-01       5.23477e-08       2.04720e-09       5.51701e-15       5.95573e-11       4.87249e-01       4.42259e-02       4.87249e-01      
 3.60000e-01       6.39201e-08       2.56923e-09       5.77018e-15       7.33788e-11       4.87249e-01       4.52892e-02       4.87249e-01      
 3.69000e-01       7.74218e-08       3.20401e-09       6.02901e-15       8.96110e-11       4.87249e-01       4.65271e-02       4.87249e-01      
 3.78000e-01       9.30111e-08       3.96963e-09       6.29175e-15       1.08451e-10       4.87249e-01       4.79501e-02       4.87249e-01      
 3.87000e-01       1.10831e-07       4.88555e-09       6.55661e-15       1.30070e-10       4.87249e-01       4.95659e-02       4.87249e-01      
 3.96000e-01       1.31007e-07       5.97242e-09       6.82182e-15       1.54606e-10       4.87249e-01       5.13794e-02       4.87249e-01      
 4.05000e-01       1.53658e-07       7.25199e-09       7.08572e-15       1.82169e-10       4.87249e-01       5.33925e-02       4.87249e-01      
 4.14000e-01       1.78896e-07       8.74705e-09       7.34672e-15       2.12839e-10       4.87249e-01       5.56054e-02       4.87249e-01      
 4.23000e-01       2.06837e-07       1.04814e-08       7.60335e-15       2.46679e-10       4.87249e-01       5.80162e-02       4.87249e-01      
 4.32000e-01       2.37607e-07       1.24799e-08       7.85433e-15       2.83731e-10       4.87249e-01       6.06223e-02       4.87249e-01      
 4.41000e-01       2.71344e-07       1.47687e-08       8.09851e-15       3.24031e-10       4.87249e-01       6.34203e-02       4.87249e-01      
 4.50000e-01       3.08202e-07       1.73751e-08       8.33495e-15       3.67610e-10       4.87249e-01       6.64070e-02       4.87249e-01      
 4.59000e-01       3.48342e-07       2.03280e-08       8.56286e-15       4.14497e-10       4.87249e-01       6.95792e-02       4.87249e-01      
 4.68000e-01       3.91928e-07       2.36577e-08       8.78163e-15       4.64724e-10       4.87249e-01       7.29339e-02       4.87249e-01      
 4.77000e-01       4.39123e-07       2.73958e-08       8.99082e-15       5.18324e-10       4.87249e-01       7.64687e-02       4.87249e-01      
 4.86000e-01       4.90071e-07       3.15755e-08       9.19016e-15       5.75330e-10       4.87249e-01       8.01811e-02       4.87249e-01      
 4.95000e-01       5.44897e-07       3.62313e-08       9.37949e-15       6.35777e-10       4.87249e-01       8.40688e-02       4.87249e-01      
 5.04000e-01       6.03696e-07       4.13984e-08       9.55879e-15       6.99696e-10       4.87249e-01       8.81297e-02       4.87249e-01      
 5.13000e-01       6.66530e-07       4.71129e-08       9.72816e-15       7.67116e-10       4.87249e-01       9.23613e-02       4.87249e-01      
 5.22000e-01       7.33420e-07       5.34113e-08       9.88776e-15       8.38057e-10       4.87249e-01       9.67607e-02       4.87249e-01      
 5.31000e-01       8.04350e-07       6.03300e-08       1.00379e-14       9.12534e-10       4.87249e-01       1.01325e-01       4.87249e-01      
 5.40000e-01       8.79262e-07       6.79051e-08       1.01788e-14       9.90553e-10       4.87249e-01       1.06050e-01       4.87249e-01      
 5.49000e-01       9.58062e-07       7.61721e-08       1.03108e-14       1.07211e-09       4.87249e-01       1.10933e-01       4.87249e-01      
 5.58000e-01       1.04062e-06       8.51654e-08       1.04345e-14       1.15720e-09       4.87249e-01       1.15968e-01       4.87249e-01      
 5.67000e-01       1.12678e-06       9.49181e-08       1.05501e-14       1.24579e-09       4.87249e-01       1.21152e-01       4.87249e-01      
 5.76000e-01       1.21635e-06       1.05462e-07       1.06581e-14       1.33786e-09       4.87249e-01       1.26478e-01       4.87249e-01      
 5.85000e-01       1.30914e-06       1.16826e-07       1.07589e-14       1.43337e-09       4.87249e-01       1.31941e-01       4.87249e-01      
 5.94000e-01       1.40491e-06       1.29040e-07       1.08530e-14       1.53228e-09       4.87249e-01       1.37535e-01       4.87249e-01      
 6.03000e-01       1.50344e-06       1.42127e-07       1.09408e-14       1.63454e-09       4.87249e-01       1.43255e-01       4.87249e-01      
 6.12000e-01       1.60449e-06       1.56113e-07       1.10227e-14       1.74010e-09       4.87249e-01       1.49093e-01       4.87249e-01      
 6.21000e-01       1.70784e-06       1.71020e-07       1.10991e-14       1.84889e-09       4.87249e-01       1.55045e-01       4.87249e-01      
 6.30000e-01       1.81324e-06       1.86865e-07       1.11704e-14       1.96087e-09       4.87249e-01       1.61104e-01       4.87249e-01      
 6.39000e-01       1.92047e-06       2.03668e-07       1.12369e-14       2.07597e-09       4.87249e-01       1.67264e-01       4.87249e-01      
 6.48000e-01       2.02932e-06       2.21443e-07       1.12990e-14       2.19413e-09       4.87249e-01       1.73520e-01       4.87249e-01      
 6.57000e-01       2.13957e-06       2.40204e-07       1.13570e-14       2.31530e-09       4.87249e-01       1.79865e-01       4.87249e-01      
 6.66000e-01       2.25105e-06       2.59963e-07       1.14113e-14       2.43941e-09       4.87249e-01       1.86295e-01       4.87249e-01      
 6.75000e-01       2.36356e-06       2.80730e-07       1.14621e-14       2.56641e-09       4.87249e-01       1.92803e-01       4.87249e-01      
 6.84000e-01       2.47695e-06       3.02514e-07       1.15096e-14       2.69624e-09       4.87249e-01       1.99386e-01       4.87249e-01      
 6.93000e-01       2.59106e-06       3.25321e-07       1.15542e-14       2.82886e-09       4.87249e-01       2.06038e-01       4.87249e-01      
 7.02000e-01       2.70576e-06       3.49158e-07       1.15960e-14       2.96421e-09       4.87249e-01       2.12756e-01       4.87249e-01      
 7.11000e-01       2.82091e-06       3.74030e-07       1.16352e-14       3.10226e-09       4.87249e-01       2.19534e-01       4.87249e-01      
 7.20000e-01       2.93640e-06       3.99939e-07       1.16721e-14       3.24296e-09       4.87249e-01       2.26370e-01       4.87249e-01      
 7.29000e-01       3.05215e-06       4.26889e-07       1.17069e-14       3.38626e-09       4.87249e-01       2.33259e-01       4.87249e-01      
 7.38000e-01       3.16804e-06       4.54881e-07       1.17397e-14       3.53215e-09       4.87249e-01       2.40199e-01       4.87249e-01      
 7.47000e-01       3.28401e-06       4.83916e-07       1.17706e-14       3.68059e-09       4.87249e-01       2.47186e-01       4.87249e-01      
 7.56000e-01       3.39999e-06       5.13995e-07       1.17998e-14       3.83154e-09       4.87249e-01       2.54218e-01       4.87249e-01      
 7.65000e-01       3.51590e-06       5.45118e-07       1.18275e-14       3.98499e-09       4.87249e-01       2.61291e-01       4.87249e-01      
 7.74000e-01       3.63170e-06       5.77283e-07       1.18537e-14       4.14092e-09       4.87249e-01       2.68404e-01       4.87249e-01      
 7.83000e-01       3.74733e-06       6.10490e-07       1.18785e-14       4.29931e-09       4.87249e-01       2.75555e-01       4.87249e-01      
 7.92000e-01       3.86276e-06       6.44736e-07       1.19021e-14       4.46014e-09       4.87249e-01       2.82741e-01       4.87249e-01      
 8.01000e-01       3.97793e-06       6.80020e-07       1.19246e-14       4.62341e-09       4.87249e-01       2.89960e-01       4.87249e-01      
 8.10000e-01       4.09283e-06       7.16339e-07       1.19460e-14       4.78911e-09       4.87249e-01       2.97212e-01       4.87249e-01      
 8.19000e-01       4.20741e-06       7.53690e-07       1.19664e-14       4.95723e-09       4.87249e-01       3.04493e-01       4.87249e-01      
 8.28000e-01       4.32165e-06       7.92071e-07       1.19859e-14       5.12777e-09       4.87249e-01       3.11804e-01       4.87249e-01      
 8.37000e-01       4.43552e-06       8.31479e-07       1.20046e-14       5.30073e-09       4.87249e-01       3.19143e-01       4.87249e-01      
 8.46000e-01       4.54900e-06       8.71909e-07       1.20224e-14       5.47612e-09       4.87249e-01       3.26508e-01       4.87249e-01      
 8.55000e-01       4.66208e-06       9.13359e-07       1.20396e-14       5.65394e-09       4.87249e-01       3.33899e-01       4.87249e-01      
 8.64000e-01       4.77473e-06       9.55825e-07       1.20560e-14       5.83420e-09       4.87249e-01       3.41315e-01       4.87249e-01      
 8.73000e-01       4.88693e-06       9.99302e-07       1.20718e-14       6.01691e-09       4.87249e-01       3.48755e-01       4.87249e-01      
 8.82000e-01       4.99868e-06       1.04379e-06       1.20870e-14       6.20208e-09       4.87249e-01       3.56219e-01       4.87249e-01      
 8.91000e-01       5.10994e-06       1.08928e-06       1.21016e-14       6.38973e-09       4.87249e-01       3.63705e-01       4.87249e-01      
 9.00000e-01       5.22071e-06       1.13576e-06       1.21157e-14       6.57987e-09       4.87249e-01       3.71212e-01       4.87249e-01      
 9.09000e-01       5.33097e-06       1.18325e-06       1.21293e-14       6.77253e-09       4.87249e-01       3.78742e-01       4.87249e-01      
 9.18000e-01       5.44071e-06       1.23172e-06       1.21425e-14       6.96771e-09       4.87249e-01       3.86292e-01       4.87249e-01      
 9.27000e-01       5.54992e-06       1.28117e-06       1.21552e-14       7.16546e-09       4.87249e-01       3.93863e-01       4.87249e-01      
 9.36000e-01       5.65858e-06       1.33161e-06       1.21676e-14       7.36579e-09       4.87249e-01       4.01454e-01       4.87249e-01      
 9.45000e-01       5.76667e-06       1.38302e-06       1.21795e-14       7.56873e-09       4.87249e-01       4.09065e-01       4.87249e-01      
 9.54000e-01       5.87419e-06       1.43541e-06       1.21911e-14       7.77430e-09       4.87249e-01       4.16696e-01       4.87249e-01      
 9.63000e-01       5.98112e-06       1.48876e-06       1.22023e-14       7.98254e-09       4.87249e-01       4.24346e-01       4.87249e-01      
 9.72000e-01       6.08745e-06       1.54306e-06       1.22132e-14       8.19349e-09       4.87249e-01       4.32015e-01       4.87249e-01      
 9.81000e-01       6.19317e-06       1.59833e-06       1.22238e-14       8.40717e-09       4.87249e-01       4.39704e-01       4.87249e-01      
 9.90000e-01       6.29826e-06       1.65454e-06       1.22342e-14       8.62362e-09       4.87249e-01       4.47411e-01       4.87249e-01      
 9.99000e-01       6.40271e-06       1.71169e-06       1.22442e-14       8.84287e-09       4.87249e-01       4.55136e-01       4.87249e-01      
 1.00800e+00       6.50651e-06       1.76978e-06       1.22540e-14       9.06498e-09       4.87249e-01       4.62880e-01       4.87249e-01      
 1.01700e+00       6.60964e-06       1.82880e-06       1.22635e-14       9.28998e-09       4.87249e-01       4.70643e-01       4.87249e-01      
 1.02600e+00       6.71209e-06       1.88875e-06       1.22729e-14       9.51792e-09       4.87249e-01       4.78424e-01       4.87249e-01      
 1.03500e+00       6.81385e-06       1.94961e-06       1.22819e-14       9.74883e-09       4.87249e-01       4.86223e-01       4.87249e-01      
 1.04400e+00       6.91491e-06       2.01139e-06       1.22908e-14       9.98278e-09       4.87249e-01       4.94041e-01       4.87249e-01      
 1.05300e+00       7.01524e-06       2.07408e-06       1.22995e-14       1.02198e-08       4.87249e-01       5.01877e-01       4.87249e-01      
 1.06200e+00       7.11485e-06       2.13766e-06       1.23079e-14       1.04600e-08       4.87249e-01       5.09731e-01       4.87249e-01      
 1.07100e+00       7.21372e-06       2.20214e-06       1.23162e-14       1.07033e-08       4.87249e-01       5.17603e-01       4.87249e-01      
 1.08000e+00       7.31183e-06       2.26750e-06       1.23243e-14       1.09499e-08       4.87249e-01       5.25493e-01       4.87249e-01      
 1.08900e+00       7.40918e-06       2.33375e-06       1.23322e-14       1.11998e-08       4.87249e-01       5.33401e-01       4.87249e-01      
 1.09800e+00       7.50575e-06       2.40086e-06       1.23400e-14       1.14530e-08       4.87249e-01       5.41328e-01       4.87249e-01      
 1.10700e+00       7.60152e-06       2.46884e-06       1.23476e-14       1.17097e-08       4.87249e-01       5.49273e-01       4.87249e-01      
 1.11600e+00       7.69649e-06       2.53768e-06       1.23551e-14       1.19699e-08       4.87249e-01       5.57236e-01       4.87249e-01      
 1.12500e+00       7.79065e-06       2.60737e-06       1.23624e-14       1.22336e-08       4.87249e-01       5.65218e-01       4.87249e-01      
 1.13400e+00       7.88398e-06       2.67791e-06       1.23696e-14       1.25010e-08       4.87249e-01       5.73218e-01       4.87249e-01      
 1.14300e+00       7.97648e-06       2.74928e-06       1.23766e-14       1.27721e-08       4.87249e-01       5.81236e-01       4.87249e-01      
 1.15200e+00       8.06813e-06       2.82148e-06       1.23835e-14       1.30470e-08       4.87249e-01       5.89273e-01       4.87249e-01      
 1.16100e+00       8.15892e-06       2.89450e-06       1.23903e-14       1.33257e-08       4.87249e-01       5.97328e-01       4.87249e-01      
 1.17000e+00       8.24884e-06       2.96834e-06       1.23969e-14       1.36084e-08       4.87249e-01       6.05401e-01       4.87249e-01      
 1.17900e+00       8.33788e-06       3.04298e-06       1.24035e-14       1.38952e-08       4.87249e-01       6.13494e-01       4.87249e-01      
 1.18800e+00       8.42604e-06       3.11841e-06       1.24099e-14       1.41860e-08       4.87249e-01       6.21605e-01       4.87249e-01      
 1.19700e+00       8.51329e-06       3.19464e-06       1.24162e-14       1.44811e-08       4.87249e-01       6.29735e-01       4.87249e-01      
 1.20600e+00       8.59964e-06       3.27165e-06       1.24224e-14       1.47806e-08       4.87249e-01       6.37884e-01       4.87249e-01      
 1.21500e+00       8.68508e-06       3.34943e-06       1.24285e-14       1.50844e-08       4.87249e-01       6.46051e-01       4.87249e-01      
