
dc (V)            getData("M0:gm    getData("M0:id    getData("M0:cg    getData("M0:gd    getData("M0:vt    getData("M0:vd    getData("M0:vt

 0.00000e+00       2.15753e-12       8.77842e-14       7.40682e-15       2.65233e-15       5.20093e-01       4.05564e-02       5.20093e-01      
 9.00000e-03       2.89086e-12       1.10341e-13       7.37387e-15       3.55415e-15       5.20093e-01       4.05565e-02       5.20093e-01      
 1.80000e-02       3.87328e-12       1.40565e-13       7.34200e-15       4.76246e-15       5.20093e-01       4.05565e-02       5.20093e-01      
 2.70000e-02       5.18933e-12       1.81058e-13       7.31124e-15       6.38137e-15       5.20093e-01       4.05565e-02       5.20093e-01      
 3.60000e-02       6.95215e-12       2.35309e-13       7.28161e-15       8.55028e-15       5.20093e-01       4.05566e-02       5.20093e-01      
 4.50000e-02       9.31319e-12       3.07987e-13       7.25316e-15       1.14559e-14       5.20093e-01       4.05566e-02       5.20093e-01      
 5.40000e-02       1.24751e-11       4.05343e-13       7.22596e-15       1.53481e-14       5.20093e-01       4.05567e-02       5.20093e-01      
 6.30000e-02       1.67091e-11       5.35746e-13       7.20007e-15       2.05615e-14       5.20093e-01       4.05568e-02       5.20093e-01      
 7.20000e-02       2.23777e-11       7.10399e-13       7.17560e-15       2.75439e-14       5.20093e-01       4.05569e-02       5.20093e-01      
 8.10000e-02       2.99659e-11       9.44288e-13       7.15268e-15       3.68945e-14       5.20093e-01       4.05571e-02       5.20093e-01      
 9.00000e-02       4.01213e-11       1.25746e-12       7.13147e-15       4.94148e-14       5.20093e-01       4.05573e-02       5.20093e-01      
 9.90000e-02       5.37094e-11       1.67674e-12       7.11218e-15       6.61767e-14       5.20093e-01       4.05576e-02       5.20093e-01      
 1.08000e-01       7.18854e-11       2.23796e-12       7.09505e-15       8.86130e-14       5.20093e-01       4.05580e-02       5.20093e-01      
 1.17000e-01       9.61901e-11       2.98901e-12       7.08038e-15       1.18638e-13       5.20093e-01       4.05585e-02       5.20093e-01      
 1.26000e-01       1.28677e-10       3.99386e-12       7.06856e-15       1.58808e-13       5.20093e-01       4.05592e-02       5.20093e-01      
 1.35000e-01       1.72082e-10       5.33787e-12       7.06004e-15       2.12535e-13       5.20093e-01       4.05602e-02       5.20093e-01      
 1.44000e-01       2.30040e-10       7.13487e-12       7.05538e-15       2.84369e-13       5.20093e-01       4.05614e-02       5.20093e-01      
 1.53000e-01       3.07383e-10       9.53658e-12       7.05523e-15       3.80371e-13       5.20093e-01       4.05631e-02       5.20093e-01      
 1.62000e-01       4.10488e-10       1.27448e-11       7.06000e-15       5.08604e-13       5.20093e-01       4.05654e-02       5.20093e-01      
 1.71000e-01       5.47831e-10       1.70278e-11       7.07101e-15       6.79780e-13       5.20093e-01       4.05684e-02       5.20093e-01      
 1.80000e-01       7.30589e-10       2.27417e-11       7.08936e-15       9.08119e-13       5.20093e-01       4.05725e-02       5.20093e-01      
 1.89000e-01       9.73473e-10       3.03583e-11       7.11633e-15       1.21245e-12       5.20093e-01       4.05779e-02       5.20093e-01      
 1.98000e-01       1.29580e-09       4.05019e-11       7.15339e-15       1.61768e-12       5.20093e-01       4.05851e-02       5.20093e-01      
 2.07000e-01       1.72281e-09       5.39960e-11       7.20221e-15       2.15661e-12       5.20093e-01       4.05946e-02       5.20093e-01      
 2.16000e-01       2.28739e-09       7.19242e-11       7.26464e-15       2.87240e-12       5.20093e-01       4.06073e-02       5.20093e-01      
 2.25000e-01       3.03214e-09       9.57083e-11       7.34273e-15       3.82156e-12       5.20093e-01       4.06241e-02       5.20093e-01      
 2.34000e-01       4.01193e-09       1.27206e-10       7.43871e-15       5.07781e-12       5.20093e-01       4.06463e-02       5.20093e-01      
 2.43000e-01       5.29692e-09       1.68837e-10       7.55492e-15       6.73688e-12       5.20093e-01       4.06756e-02       5.20093e-01      
 2.52000e-01       6.97622e-09       2.23732e-10       7.69376e-15       8.92231e-12       5.20093e-01       4.07142e-02       5.20093e-01      
 2.61000e-01       9.16188e-09       2.95925e-10       7.85766e-15       1.17925e-11       5.20093e-01       4.07649e-02       5.20093e-01      
 2.70000e-01       1.19934e-08       3.90580e-10       8.04898e-15       1.55491e-11       5.20093e-01       4.08312e-02       5.20093e-01      
 2.79000e-01       1.56427e-08       5.14256e-10       8.26988e-15       2.04462e-11       5.20093e-01       4.09175e-02       5.20093e-01      
 2.88000e-01       2.03182e-08       6.75223e-10       8.52231e-15       2.68010e-11       5.20093e-01       4.10292e-02       5.20093e-01      
 2.97000e-01       2.62699e-08       8.83808e-10       8.80784e-15       3.50045e-11       5.20093e-01       4.11731e-02       5.20093e-01      
 3.06000e-01       3.37921e-08       1.15279e-09       9.12763e-15       4.55320e-11       5.20093e-01       4.13573e-02       5.20093e-01      
 3.15000e-01       4.32258e-08       1.49780e-09       9.48233e-15       5.89528e-11       5.20093e-01       4.15913e-02       5.20093e-01      
 3.24000e-01       5.49581e-08       1.93774e-09       9.87205e-15       7.59366e-11       5.20093e-01       4.18860e-02       5.20093e-01      
 3.33000e-01       6.94200e-08       2.49523e-09       1.02963e-14       9.72556e-11       5.20093e-01       4.22538e-02       5.20093e-01      
 3.42000e-01       8.70805e-08       3.19690e-09       1.07540e-14       1.23782e-10       5.20093e-01       4.27083e-02       5.20093e-01      
 3.51000e-01       1.08438e-07       4.07377e-09       1.12435e-14       1.56477e-10       5.20093e-01       4.32639e-02       5.20093e-01      
 3.60000e-01       1.34011e-07       5.16143e-09       1.17626e-14       1.96376e-10       5.20093e-01       4.39351e-02       5.20093e-01      
 3.69000e-01       1.64320e-07       6.50017e-09       1.23085e-14       2.44561e-10       5.20093e-01       4.47364e-02       5.20093e-01      
 3.78000e-01       1.99882e-07       8.13495e-09       1.28779e-14       3.02138e-10       5.20093e-01       4.56810e-02       5.20093e-01      
 3.87000e-01       2.41193e-07       1.01153e-08       1.34673e-14       3.70204e-10       5.20093e-01       4.67808e-02       5.20093e-01      
 3.96000e-01       2.88727e-07       1.24951e-08       1.40727e-14       4.49823e-10       5.20093e-01       4.80455e-02       5.20093e-01      
 4.05000e-01       3.42935e-07       1.53324e-08       1.46902e-14       5.42006e-10       5.20093e-01       4.94827e-02       5.20093e-01      
 4.14000e-01       4.04257e-07       1.86893e-08       1.53154e-14       6.47697e-10       5.20093e-01       5.10975e-02       5.20093e-01      
 4.23000e-01       4.73140e-07       2.26317e-08       1.59441e-14       7.67779e-10       5.20093e-01       5.28930e-02       5.20093e-01      
 4.32000e-01       5.50059e-07       2.72299e-08       1.65724e-14       9.03077e-10       5.20093e-01       5.48706e-02       5.20093e-01      
 4.41000e-01       6.35535e-07       3.25584e-08       1.71963e-14       1.05438e-09       5.20093e-01       5.70306e-02       5.20093e-01      
 4.50000e-01       7.30154e-07       3.86969e-08       1.78121e-14       1.22245e-09       5.20093e-01       5.93724e-02       5.20093e-01      
 4.59000e-01       8.34570e-07       4.57306e-08       1.84166e-14       1.40807e-09       5.20093e-01       6.18951e-02       5.20093e-01      
 4.68000e-01       9.49498e-07       5.37507e-08       1.90068e-14       1.61201e-09       5.20093e-01       6.45979e-02       5.20093e-01      
 4.77000e-01       1.07570e-06       6.28554e-08       1.95802e-14       1.83510e-09       5.20093e-01       6.74801e-02       5.20093e-01      
 4.86000e-01       1.21396e-06       7.31495e-08       2.01346e-14       2.07817e-09       5.20093e-01       7.05411e-02       5.20093e-01      
 4.95000e-01       1.36506e-06       8.47452e-08       2.06684e-14       2.34212e-09       5.20093e-01       7.37809e-02       5.20093e-01      
 5.04000e-01       1.52972e-06       9.77613e-08       2.11802e-14       2.62784e-09       5.20093e-01       7.71993e-02       5.20093e-01      
 5.13000e-01       1.70863e-06       1.12323e-07       2.16692e-14       2.93628e-09       5.20093e-01       8.07960e-02       5.20093e-01      
 5.22000e-01       1.90234e-06       1.28561e-07       2.21348e-14       3.26834e-09       5.20093e-01       8.45709e-02       5.20093e-01      
 5.31000e-01       2.11131e-06       1.46611e-07       2.25766e-14       3.62496e-09       5.20093e-01       8.85231e-02       5.20093e-01      
 5.40000e-01       2.33584e-06       1.66611e-07       2.29949e-14       4.00704e-09       5.20093e-01       9.26515e-02       5.20093e-01      
 5.49000e-01       2.57609e-06       1.88703e-07       2.33898e-14       4.41544e-09       5.20093e-01       9.69545e-02       5.20093e-01      
 5.58000e-01       2.83207e-06       2.13028e-07       2.37618e-14       4.85099e-09       5.20093e-01       1.01430e-01       5.20093e-01      
 5.67000e-01       3.10361e-06       2.39727e-07       2.41116e-14       5.31447e-09       5.20093e-01       1.06074e-01       5.20093e-01      
 5.76000e-01       3.39041e-06       2.68939e-07       2.44399e-14       5.80662e-09       5.20093e-01       1.10884e-01       5.20093e-01      
 5.85000e-01       3.69202e-06       3.00799e-07       2.47477e-14       6.32810e-09       5.20093e-01       1.15855e-01       5.20093e-01      
 5.94000e-01       4.00787e-06       3.35438e-07       2.50358e-14       6.87955e-09       5.20093e-01       1.20982e-01       5.20093e-01      
 6.03000e-01       4.33729e-06       3.72981e-07       2.53052e-14       7.46153e-09       5.20093e-01       1.26261e-01       5.20093e-01      
 6.12000e-01       4.67950e-06       4.13547e-07       2.55571e-14       8.07458e-09       5.20093e-01       1.31685e-01       5.20093e-01      
 6.21000e-01       5.03366e-06       4.57248e-07       2.57923e-14       8.71920e-09       5.20093e-01       1.37248e-01       5.20093e-01      
 6.30000e-01       5.39890e-06       5.04187e-07       2.60119e-14       9.39585e-09       5.20093e-01       1.42943e-01       5.20093e-01      
 6.39000e-01       5.77429e-06       5.54459e-07       2.62169e-14       1.01050e-08       5.20093e-01       1.48765e-01       5.20093e-01      
 6.48000e-01       6.15893e-06       6.08152e-07       2.64082e-14       1.08470e-08       5.20093e-01       1.54707e-01       5.20093e-01      
 6.57000e-01       6.55188e-06       6.65344e-07       2.65869e-14       1.16224e-08       5.20093e-01       1.60762e-01       5.20093e-01      
 6.66000e-01       6.95226e-06       7.26108e-07       2.67537e-14       1.24316e-08       5.20093e-01       1.66924e-01       5.20093e-01      
 6.75000e-01       7.35920e-06       7.90505e-07       2.69096e-14       1.32750e-08       5.20093e-01       1.73185e-01       5.20093e-01      
 6.84000e-01       7.77186e-06       8.58590e-07       2.70553e-14       1.41531e-08       5.20093e-01       1.79541e-01       5.20093e-01      
 6.93000e-01       8.18948e-06       9.30413e-07       2.71915e-14       1.50664e-08       5.20093e-01       1.85985e-01       5.20093e-01      
 7.02000e-01       8.61131e-06       1.00601e-06       2.73191e-14       1.60155e-08       5.20093e-01       1.92511e-01       5.20093e-01      
 7.11000e-01       9.03668e-06       1.08543e-06       2.74386e-14       1.70009e-08       5.20093e-01       1.99115e-01       5.20093e-01      
 7.20000e-01       9.46496e-06       1.16868e-06       2.75506e-14       1.80234e-08       5.20093e-01       2.05789e-01       5.20093e-01      
 7.29000e-01       9.89559e-06       1.25580e-06       2.76558e-14       1.90835e-08       5.20093e-01       2.12531e-01       5.20093e-01      
 7.38000e-01       1.03280e-05       1.34681e-06       2.77547e-14       2.01821e-08       5.20093e-01       2.19335e-01       5.20093e-01      
 7.47000e-01       1.07619e-05       1.44171e-06       2.78477e-14       2.13199e-08       5.20093e-01       2.26197e-01       5.20093e-01      
 7.56000e-01       1.11966e-05       1.54053e-06       2.79353e-14       2.24980e-08       5.20093e-01       2.33113e-01       5.20093e-01      
 7.65000e-01       1.16319e-05       1.64325e-06       2.80179e-14       2.37173e-08       5.20093e-01       2.40080e-01       5.20093e-01      
 7.74000e-01       1.20675e-05       1.74990e-06       2.80960e-14       2.49788e-08       5.20093e-01       2.47093e-01       5.20093e-01      
 7.83000e-01       1.25029e-05       1.86047e-06       2.81698e-14       2.62839e-08       5.20093e-01       2.54150e-01       5.20093e-01      
 7.92000e-01       1.29381e-05       1.97495e-06       2.82397e-14       2.76337e-08       5.20093e-01       2.61248e-01       5.20093e-01      
 8.01000e-01       1.33726e-05       2.09335e-06       2.83060e-14       2.90296e-08       5.20093e-01       2.68384e-01       5.20093e-01      
 8.10000e-01       1.38064e-05       2.21566e-06       2.83689e-14       3.04731e-08       5.20093e-01       2.75556e-01       5.20093e-01      
 8.19000e-01       1.42392e-05       2.34186e-06       2.84288e-14       3.19658e-08       5.20093e-01       2.82762e-01       5.20093e-01      
 8.28000e-01       1.46708e-05       2.47196e-06       2.84859e-14       3.35095e-08       5.20093e-01       2.89999e-01       5.20093e-01      
 8.37000e-01       1.51012e-05       2.60593e-06       2.85403e-14       3.51061e-08       5.20093e-01       2.97265e-01       5.20093e-01      
 8.46000e-01       1.55302e-05       2.74378e-06       2.85922e-14       3.67575e-08       5.20093e-01       3.04560e-01       5.20093e-01      
 8.55000e-01       1.59577e-05       2.88547e-06       2.86419e-14       3.84660e-08       5.20093e-01       3.11881e-01       5.20093e-01      
 8.64000e-01       1.63835e-05       3.03101e-06       2.86895e-14       4.02339e-08       5.20093e-01       3.19227e-01       5.20093e-01      
 8.73000e-01       1.68076e-05       3.18037e-06       2.87352e-14       4.20636e-08       5.20093e-01       3.26596e-01       5.20093e-01      
 8.82000e-01       1.72298e-05       3.33354e-06       2.87790e-14       4.39580e-08       5.20093e-01       3.33989e-01       5.20093e-01      
 8.91000e-01       1.76502e-05       3.49050e-06       2.88212e-14       4.59199e-08       5.20093e-01       3.41402e-01       5.20093e-01      
 9.00000e-01       1.80686e-05       3.65124e-06       2.88618e-14       4.79524e-08       5.20093e-01       3.48837e-01       5.20093e-01      
 9.09000e-01       1.84849e-05       3.81573e-06       2.89010e-14       5.00589e-08       5.20093e-01       3.56291e-01       5.20093e-01      
 9.18000e-01       1.88992e-05       3.98396e-06       2.89388e-14       5.22431e-08       5.20093e-01       3.63765e-01       5.20093e-01      
 9.27000e-01       1.93112e-05       4.15591e-06       2.89754e-14       5.45088e-08       5.20093e-01       3.71256e-01       5.20093e-01      
 9.36000e-01       1.97210e-05       4.33156e-06       2.90108e-14       5.68602e-08       5.20093e-01       3.78766e-01       5.20093e-01      
 9.45000e-01       2.01285e-05       4.51088e-06       2.90451e-14       5.93019e-08       5.20093e-01       3.86293e-01       5.20093e-01      
 9.54000e-01       2.05336e-05       4.69386e-06       2.90784e-14       6.18387e-08       5.20093e-01       3.93836e-01       5.20093e-01      
 9.63000e-01       2.09363e-05       4.88048e-06       2.91108e-14       6.44758e-08       5.20093e-01       4.01396e-01       5.20093e-01      
 9.72000e-01       2.13365e-05       5.07071e-06       2.91423e-14       6.72191e-08       5.20093e-01       4.08971e-01       5.20093e-01      
 9.81000e-01       2.17342e-05       5.26453e-06       2.91729e-14       7.00745e-08       5.20093e-01       4.16563e-01       5.20093e-01      
 9.90000e-01       2.21293e-05       5.46192e-06       2.92028e-14       7.30488e-08       5.20093e-01       4.24169e-01       5.20093e-01      
 9.99000e-01       2.25216e-05       5.66285e-06       2.92320e-14       7.61491e-08       5.20093e-01       4.31790e-01       5.20093e-01      
 1.00800e+00       2.29113e-05       5.86730e-06       2.92605e-14       7.93833e-08       5.20093e-01       4.39427e-01       5.20093e-01      
 1.01700e+00       2.32982e-05       6.07524e-06       2.92884e-14       8.27597e-08       5.20093e-01       4.47077e-01       5.20093e-01      
 1.02600e+00       2.36822e-05       6.28666e-06       2.93158e-14       8.62876e-08       5.20093e-01       4.54742e-01       5.20093e-01      
 1.03500e+00       2.40633e-05       6.50151e-06       2.93426e-14       8.99769e-08       5.20093e-01       4.62422e-01       5.20093e-01      
 1.04400e+00       2.44414e-05       6.71979e-06       2.93689e-14       9.38385e-08       5.20093e-01       4.70115e-01       5.20093e-01      
 1.05300e+00       2.48165e-05       6.94145e-06       2.93948e-14       9.78842e-08       5.20093e-01       4.77822e-01       5.20093e-01      
 1.06200e+00       2.51885e-05       7.16647e-06       2.94203e-14       1.02127e-07       5.20093e-01       4.85543e-01       5.20093e-01      
 1.07100e+00       2.55573e-05       7.39483e-06       2.94454e-14       1.06581e-07       5.20093e-01       4.93278e-01       5.20093e-01      
 1.08000e+00       2.59229e-05       7.62650e-06       2.94702e-14       1.11261e-07       5.20093e-01       5.01027e-01       5.20093e-01      
 1.08900e+00       2.62852e-05       7.86143e-06       2.94946e-14       1.16185e-07       5.20093e-01       5.08789e-01       5.20093e-01      
 1.09800e+00       2.66440e-05       8.09962e-06       2.95188e-14       1.21371e-07       5.20093e-01       5.16565e-01       5.20093e-01      
 1.10700e+00       2.69995e-05       8.34102e-06       2.95428e-14       1.26840e-07       5.20093e-01       5.24355e-01       5.20093e-01      
 1.11600e+00       2.73514e-05       8.58560e-06       2.95666e-14       1.32613e-07       5.20093e-01       5.32158e-01       5.20093e-01      
 1.12500e+00       2.76997e-05       8.83333e-06       2.95901e-14       1.38715e-07       5.20093e-01       5.39974e-01       5.20093e-01      
 1.13400e+00       2.80443e-05       9.08418e-06       2.96136e-14       1.45174e-07       5.20093e-01       5.47805e-01       5.20093e-01      
 1.14300e+00       2.83852e-05       9.33812e-06       2.96369e-14       1.52019e-07       5.20093e-01       5.55648e-01       5.20093e-01      
 1.15200e+00       2.87223e-05       9.59510e-06       2.96602e-14       1.59283e-07       5.20093e-01       5.63506e-01       5.20093e-01      
 1.16100e+00       2.90554e-05       9.85511e-06       2.96833e-14       1.67003e-07       5.20093e-01       5.71377e-01       5.20093e-01      
 1.17000e+00       2.93846e-05       1.01181e-05       2.97065e-14       1.75220e-07       5.20093e-01       5.79261e-01       5.20093e-01      
 1.17900e+00       2.97096e-05       1.03840e-05       2.97297e-14       1.83979e-07       5.20093e-01       5.87159e-01       5.20093e-01      
 1.18800e+00       3.00305e-05       1.06529e-05       2.97530e-14       1.93329e-07       5.20093e-01       5.95071e-01       5.20093e-01      
 1.19700e+00       3.03470e-05       1.09246e-05       2.97763e-14       2.03326e-07       5.20093e-01       6.02997e-01       5.20093e-01      
 1.20600e+00       3.06592e-05       1.11991e-05       2.97997e-14       2.14032e-07       5.20093e-01       6.10936e-01       5.20093e-01      
 1.21500e+00       3.09669e-05       1.14764e-05       2.98233e-14       2.25515e-07       5.20093e-01       6.18889e-01       5.20093e-01      
