
dc (V)            getData("M0:gm    getData("M0:id    getData("M0:cg    getData("M0:gd    getData("M0:vt    getData("M0:vd    getData("M0:vt

 0.00000e+00       2.60430e-12       1.01651e-13       6.10110e-15       3.75738e-15       5.21761e-01       4.07895e-02       5.21761e-01      
 9.00000e-03       3.48785e-12       1.28873e-13       6.07433e-15       5.03255e-15       5.21761e-01       4.07896e-02       5.21761e-01      
 1.80000e-02       4.67097e-12       1.65329e-13       6.04844e-15       6.74031e-15       5.21761e-01       4.07896e-02       5.21761e-01      
 2.70000e-02       6.25512e-12       2.14150e-13       6.02343e-15       9.02731e-15       5.21761e-01       4.07896e-02       5.21761e-01      
 3.60000e-02       8.37607e-12       2.79527e-13       5.99934e-15       1.20898e-14       5.21761e-01       4.07896e-02       5.21761e-01      
 4.50000e-02       1.12155e-11       3.67068e-13       5.97619e-15       1.61907e-14       5.21761e-01       4.07897e-02       5.21761e-01      
 5.40000e-02       1.50163e-11       4.84281e-13       5.95404e-15       2.16814e-14       5.21761e-01       4.07898e-02       5.21761e-01      
 6.30000e-02       2.01034e-11       6.41210e-13       5.93294e-15       2.90326e-14       5.21761e-01       4.07898e-02       5.21761e-01      
 7.20000e-02       2.69112e-11       8.51291e-13       5.91298e-15       3.88736e-14       5.21761e-01       4.07900e-02       5.21761e-01      
 8.10000e-02       3.60201e-11       1.13250e-12       5.89426e-15       5.20463e-14       5.21761e-01       4.07901e-02       5.21761e-01      
 9.00000e-02       4.82054e-11       1.50886e-12       5.87689e-15       6.96763e-14       5.21761e-01       4.07903e-02       5.21761e-01      
 9.90000e-02       6.45024e-11       2.01249e-12       5.86105e-15       9.32683e-14       5.21761e-01       4.07906e-02       5.21761e-01      
 1.08000e-01       8.62924e-11       2.68633e-12       5.84693e-15       1.24833e-13       5.21761e-01       4.07910e-02       5.21761e-01      
 1.17000e-01       1.15417e-10       3.58770e-12       5.83477e-15       1.67055e-13       5.21761e-01       4.07915e-02       5.21761e-01      
 1.26000e-01       1.54331e-10       4.79313e-12       5.82487e-15       2.23518e-13       5.21761e-01       4.07922e-02       5.21761e-01      
 1.35000e-01       2.06301e-10       6.40473e-12       5.81758e-15       2.99005e-13       5.21761e-01       4.07931e-02       5.21761e-01      
 1.44000e-01       2.75670e-10       8.55861e-12       5.81335e-15       3.99890e-13       5.21761e-01       4.07944e-02       5.21761e-01      
 1.53000e-01       3.68206e-10       1.14361e-11       5.81269e-15       5.34661e-13       5.21761e-01       4.07960e-02       5.21761e-01      
 1.62000e-01       4.91520e-10       1.52784e-11       5.81592e-15       7.14608e-13       5.21761e-01       4.07982e-02       5.21761e-01      
 1.71000e-01       6.55729e-10       2.04058e-11       5.82408e-15       9.54726e-13       5.21761e-01       4.08012e-02       5.21761e-01      
 1.80000e-01       8.74167e-10       2.72438e-11       5.83805e-15       1.27491e-12       5.21761e-01       4.08051e-02       5.21761e-01      
 1.89000e-01       1.16439e-09       3.63557e-11       5.85885e-15       1.70152e-12       5.21761e-01       4.08103e-02       5.21761e-01      
 1.98000e-01       1.54945e-09       4.84866e-11       5.88763e-15       2.26936e-12       5.21761e-01       4.08172e-02       5.21761e-01      
 2.07000e-01       2.05947e-09       6.46197e-11       5.92572e-15       3.02436e-12       5.21761e-01       4.08264e-02       5.21761e-01      
 2.16000e-01       2.73371e-09       8.60486e-11       5.97460e-15       4.02686e-12       5.21761e-01       4.08387e-02       5.21761e-01      
 2.25000e-01       3.62303e-09       1.14470e-10       6.03592e-15       5.35591e-12       5.21761e-01       4.08549e-02       5.21761e-01      
 2.34000e-01       4.79298e-09       1.52103e-10       6.11144e-15       7.11469e-12       5.21761e-01       4.08763e-02       5.21761e-01      
 2.43000e-01       6.32748e-09       2.01835e-10       6.20304e-15       9.43716e-12       5.21761e-01       4.09047e-02       5.21761e-01      
 2.52000e-01       8.33311e-09       2.67409e-10       6.31267e-15       1.24963e-11       5.21761e-01       4.09419e-02       5.21761e-01      
 2.61000e-01       1.09441e-08       3.53644e-10       6.44229e-15       1.65141e-11       5.21761e-01       4.09909e-02       5.21761e-01      
 2.70000e-01       1.43279e-08       4.66717e-10       6.59382e-15       2.17733e-11       5.21761e-01       4.10549e-02       5.21761e-01      
 2.79000e-01       1.86907e-08       6.14479e-10       6.76904e-15       2.86305e-11       5.21761e-01       4.11382e-02       5.21761e-01      
 2.88000e-01       2.42838e-08       8.06836e-10       6.96955e-15       3.75316e-11       5.21761e-01       4.12462e-02       5.21761e-01      
 2.97000e-01       3.14083e-08       1.05618e-09       7.19667e-15       4.90266e-11       5.21761e-01       4.13853e-02       5.21761e-01      
 3.06000e-01       4.04203e-08       1.37784e-09       7.45141e-15       6.37860e-11       5.21761e-01       4.15635e-02       5.21761e-01      
 3.15000e-01       5.17327e-08       1.79064e-09       7.73435e-15       8.26138e-11       5.21761e-01       4.17901e-02       5.21761e-01      
 3.24000e-01       6.58164e-08       2.31734e-09       8.04566e-15       1.06458e-10       5.21761e-01       4.20758e-02       5.21761e-01      
 3.33000e-01       8.31969e-08       2.98522e-09       8.38504e-15       1.36415e-10       5.21761e-01       4.24328e-02       5.21761e-01      
 3.42000e-01       1.04448e-07       3.82649e-09       8.75169e-15       1.73725e-10       5.21761e-01       4.28746e-02       5.21761e-01      
 3.51000e-01       1.30183e-07       4.87873e-09       9.14435e-15       2.19761e-10       5.21761e-01       4.34155e-02       5.21761e-01      
 3.60000e-01       1.61038e-07       6.18514e-09       9.56128e-15       2.76003e-10       5.21761e-01       4.40702e-02       5.21761e-01      
 3.69000e-01       1.97661e-07       7.79472e-09       1.00003e-14       3.44005e-10       5.21761e-01       4.48531e-02       5.21761e-01      
 3.78000e-01       2.40691e-07       9.76227e-09       1.04589e-14       4.25355e-10       5.21761e-01       4.57778e-02       5.21761e-01      
 3.87000e-01       2.90748e-07       1.21482e-08       1.09343e-14       5.21634e-10       5.21761e-01       4.68566e-02       5.21761e-01      
 3.96000e-01       3.48420e-07       1.50186e-08       1.14232e-14       6.34372e-10       5.21761e-01       4.80996e-02       5.21761e-01      
 4.05000e-01       4.14267e-07       1.84443e-08       1.19224e-14       7.65022e-10       5.21761e-01       4.95147e-02       5.21761e-01      
 4.14000e-01       4.88832e-07       2.25015e-08       1.24285e-14       9.14940e-10       5.21761e-01       5.11075e-02       5.21761e-01      
 4.23000e-01       5.72660e-07       2.72711e-08       1.29382e-14       1.08538e-09       5.21761e-01       5.28815e-02       5.21761e-01      
 4.32000e-01       6.66324e-07       3.28389e-08       1.34481e-14       1.27751e-09       5.21761e-01       5.48384e-02       5.21761e-01      
 4.41000e-01       7.70452e-07       3.92963e-08       1.39550e-14       1.49242e-09       5.21761e-01       5.69785e-02       5.21761e-01      
 4.50000e-01       8.85746e-07       4.67405e-08       1.44559e-14       1.73119e-09       5.21761e-01       5.93013e-02       5.21761e-01      
 4.59000e-01       1.01299e-06       5.52756e-08       1.49481e-14       1.99487e-09       5.21761e-01       6.18060e-02       5.21761e-01      
 4.68000e-01       1.15305e-06       6.50129e-08       1.54293e-14       2.28452e-09       5.21761e-01       6.44916e-02       5.21761e-01      
 4.77000e-01       1.30686e-06       7.60718e-08       1.58971e-14       2.60127e-09       5.21761e-01       6.73573e-02       5.21761e-01      
 4.86000e-01       1.47536e-06       8.85804e-08       1.63500e-14       2.94626e-09       5.21761e-01       7.04027e-02       5.21761e-01      
 4.95000e-01       1.65952e-06       1.02675e-07       1.67864e-14       3.32071e-09       5.21761e-01       7.36273e-02       5.21761e-01      
 5.04000e-01       1.86025e-06       1.18501e-07       1.72052e-14       3.72585e-09       5.21761e-01       7.70310e-02       5.21761e-01      
 5.13000e-01       2.07838e-06       1.36212e-07       1.76056e-14       4.16296e-09       5.21761e-01       8.06136e-02       5.21761e-01      
 5.22000e-01       2.31463e-06       1.55967e-07       1.79871e-14       4.63331e-09       5.21761e-01       8.43748e-02       5.21761e-01      
 5.31000e-01       2.56958e-06       1.77931e-07       1.83495e-14       5.13818e-09       5.21761e-01       8.83139e-02       5.21761e-01      
 5.40000e-01       2.84364e-06       2.02277e-07       1.86928e-14       5.67881e-09       5.21761e-01       9.24298e-02       5.21761e-01      
 5.49000e-01       3.13702e-06       2.29175e-07       1.90171e-14       6.25642e-09       5.21761e-01       9.67209e-02       5.21761e-01      
 5.58000e-01       3.44976e-06       2.58801e-07       1.93227e-14       6.87216e-09       5.21761e-01       1.01185e-01       5.21761e-01      
 5.67000e-01       3.78169e-06       2.91328e-07       1.96103e-14       7.52712e-09       5.21761e-01       1.05819e-01       5.21761e-01      
 5.76000e-01       4.13247e-06       3.26928e-07       1.98803e-14       8.22232e-09       5.21761e-01       1.10619e-01       5.21761e-01      
 5.85000e-01       4.50157e-06       3.65768e-07       2.01335e-14       8.95870e-09       5.21761e-01       1.15582e-01       5.21761e-01      
 5.94000e-01       4.88829e-06       4.08009e-07       2.03706e-14       9.73714e-09       5.21761e-01       1.20702e-01       5.21761e-01      
 6.03000e-01       5.29183e-06       4.53807e-07       2.05925e-14       1.05585e-08       5.21761e-01       1.25974e-01       5.21761e-01      
 6.12000e-01       5.71125e-06       5.03310e-07       2.07999e-14       1.14234e-08       5.21761e-01       1.31393e-01       5.21761e-01      
 6.21000e-01       6.14553e-06       5.56655e-07       2.09937e-14       1.23326e-08       5.21761e-01       1.36952e-01       5.21761e-01      
 6.30000e-01       6.59359e-06       6.13971e-07       2.11746e-14       1.32869e-08       5.21761e-01       1.42645e-01       5.21761e-01      
 6.39000e-01       7.05429e-06       6.75377e-07       2.13436e-14       1.42867e-08       5.21761e-01       1.48465e-01       5.21761e-01      
 6.48000e-01       7.52650e-06       7.40982e-07       2.15013e-14       1.53327e-08       5.21761e-01       1.54407e-01       5.21761e-01      
 6.57000e-01       8.00908e-06       8.10885e-07       2.16486e-14       1.64255e-08       5.21761e-01       1.60462e-01       5.21761e-01      
 6.66000e-01       8.50093e-06       8.85174e-07       2.17862e-14       1.75658e-08       5.21761e-01       1.66625e-01       5.21761e-01      
 6.75000e-01       9.00095e-06       9.63926e-07       2.19147e-14       1.87540e-08       5.21761e-01       1.72890e-01       5.21761e-01      
 6.84000e-01       9.50812e-06       1.04721e-06       2.20349e-14       1.99910e-08       5.21761e-01       1.79249e-01       5.21761e-01      
 6.93000e-01       1.00215e-05       1.13509e-06       2.21472e-14       2.12773e-08       5.21761e-01       1.85698e-01       5.21761e-01      
 7.02000e-01       1.05400e-05       1.22761e-06       2.22524e-14       2.26138e-08       5.21761e-01       1.92229e-01       5.21761e-01      
 7.11000e-01       1.10630e-05       1.32482e-06       2.23510e-14       2.40012e-08       5.21761e-01       1.98839e-01       5.21761e-01      
 7.20000e-01       1.15896e-05       1.42676e-06       2.24434e-14       2.54405e-08       5.21761e-01       2.05520e-01       5.21761e-01      
 7.29000e-01       1.21192e-05       1.53345e-06       2.25301e-14       2.69325e-08       5.21761e-01       2.12269e-01       5.21761e-01      
 7.38000e-01       1.26509e-05       1.64491e-06       2.26116e-14       2.84783e-08       5.21761e-01       2.19081e-01       5.21761e-01      
 7.47000e-01       1.31843e-05       1.76117e-06       2.26883e-14       3.00791e-08       5.21761e-01       2.25951e-01       5.21761e-01      
 7.56000e-01       1.37189e-05       1.88223e-06       2.27605e-14       3.17360e-08       5.21761e-01       2.32876e-01       5.21761e-01      
 7.65000e-01       1.42541e-05       2.00811e-06       2.28287e-14       3.34505e-08       5.21761e-01       2.39851e-01       5.21761e-01      
 7.74000e-01       1.47895e-05       2.13881e-06       2.28930e-14       3.52241e-08       5.21761e-01       2.46873e-01       5.21761e-01      
 7.83000e-01       1.53248e-05       2.27432e-06       2.29538e-14       3.70582e-08       5.21761e-01       2.53939e-01       5.21761e-01      
 7.92000e-01       1.58596e-05       2.41465e-06       2.30114e-14       3.89547e-08       5.21761e-01       2.61046e-01       5.21761e-01      
 8.01000e-01       1.63936e-05       2.55979e-06       2.30661e-14       4.09154e-08       5.21761e-01       2.68191e-01       5.21761e-01      
 8.10000e-01       1.69266e-05       2.70973e-06       2.31179e-14       4.29423e-08       5.21761e-01       2.75371e-01       5.21761e-01      
 8.19000e-01       1.74583e-05       2.86447e-06       2.31673e-14       4.50377e-08       5.21761e-01       2.82585e-01       5.21761e-01      
 8.28000e-01       1.79885e-05       3.02398e-06       2.32142e-14       4.72038e-08       5.21761e-01       2.89831e-01       5.21761e-01      
 8.37000e-01       1.85170e-05       3.18825e-06       2.32591e-14       4.94432e-08       5.21761e-01       2.97106e-01       5.21761e-01      
 8.46000e-01       1.90437e-05       3.35728e-06       2.33018e-14       5.17586e-08       5.21761e-01       3.04408e-01       5.21761e-01      
 8.55000e-01       1.95684e-05       3.53104e-06       2.33428e-14       5.41529e-08       5.21761e-01       3.11737e-01       5.21761e-01      
 8.64000e-01       2.00911e-05       3.70950e-06       2.33819e-14       5.66294e-08       5.21761e-01       3.19090e-01       5.21761e-01      
 8.73000e-01       2.06114e-05       3.89267e-06       2.34195e-14       5.91913e-08       5.21761e-01       3.26467e-01       5.21761e-01      
 8.82000e-01       2.11295e-05       4.08050e-06       2.34556e-14       6.18422e-08       5.21761e-01       3.33865e-01       5.21761e-01      
 8.91000e-01       2.16450e-05       4.27299e-06       2.34903e-14       6.45862e-08       5.21761e-01       3.41285e-01       5.21761e-01      
 9.00000e-01       2.21581e-05       4.47011e-06       2.35237e-14       6.74273e-08       5.21761e-01       3.48726e-01       5.21761e-01      
 9.09000e-01       2.26685e-05       4.67183e-06       2.35559e-14       7.03701e-08       5.21761e-01       3.56185e-01       5.21761e-01      
 9.18000e-01       2.31762e-05       4.87813e-06       2.35870e-14       7.34194e-08       5.21761e-01       3.63663e-01       5.21761e-01      
 9.27000e-01       2.36811e-05       5.08899e-06       2.36171e-14       7.65803e-08       5.21761e-01       3.71159e-01       5.21761e-01      
 9.36000e-01       2.41831e-05       5.30438e-06       2.36462e-14       7.98585e-08       5.21761e-01       3.78672e-01       5.21761e-01      
 9.45000e-01       2.46822e-05       5.52428e-06       2.36744e-14       8.32599e-08       5.21761e-01       3.86201e-01       5.21761e-01      
 9.54000e-01       2.51783e-05       5.74865e-06       2.37018e-14       8.67911e-08       5.21761e-01       3.93747e-01       5.21761e-01      
 9.63000e-01       2.56713e-05       5.97748e-06       2.37284e-14       9.04589e-08       5.21761e-01       4.01309e-01       5.21761e-01      
 9.72000e-01       2.61611e-05       6.21073e-06       2.37542e-14       9.42709e-08       5.21761e-01       4.08886e-01       5.21761e-01      
 9.81000e-01       2.66477e-05       6.44837e-06       2.37794e-14       9.82351e-08       5.21761e-01       4.16478e-01       5.21761e-01      
 9.90000e-01       2.71309e-05       6.69037e-06       2.38039e-14       1.02360e-07       5.21761e-01       4.24084e-01       5.21761e-01      
 9.99000e-01       2.76108e-05       6.93672e-06       2.38279e-14       1.06656e-07       5.21761e-01       4.31705e-01       5.21761e-01      
 1.00800e+00       2.80872e-05       7.18736e-06       2.38513e-14       1.11132e-07       5.21761e-01       4.39340e-01       5.21761e-01      
 1.01700e+00       2.85601e-05       7.44227e-06       2.38742e-14       1.15801e-07       5.21761e-01       4.46989e-01       5.21761e-01      
 1.02600e+00       2.90294e-05       7.70143e-06       2.38966e-14       1.20672e-07       5.21761e-01       4.54652e-01       5.21761e-01      
 1.03500e+00       2.94950e-05       7.96479e-06       2.39186e-14       1.25761e-07       5.21761e-01       4.62328e-01       5.21761e-01      
 1.04400e+00       2.99569e-05       8.23233e-06       2.39403e-14       1.31080e-07       5.21761e-01       4.70018e-01       5.21761e-01      
 1.05300e+00       3.04149e-05       8.50401e-06       2.39615e-14       1.36646e-07       5.21761e-01       4.77721e-01       5.21761e-01      
 1.06200e+00       3.08690e-05       8.77979e-06       2.39824e-14       1.42475e-07       5.21761e-01       4.85437e-01       5.21761e-01      
 1.07100e+00       3.13191e-05       9.05964e-06       2.40030e-14       1.48585e-07       5.21761e-01       4.93167e-01       5.21761e-01      
 1.08000e+00       3.17652e-05       9.34352e-06       2.40233e-14       1.54996e-07       5.21761e-01       5.00909e-01       5.21761e-01      
 1.08900e+00       3.22070e-05       9.63140e-06       2.40434e-14       1.61730e-07       5.21761e-01       5.08665e-01       5.21761e-01      
 1.09800e+00       3.26447e-05       9.92323e-06       2.40633e-14       1.68811e-07       5.21761e-01       5.16434e-01       5.21761e-01      
 1.10700e+00       3.30780e-05       1.02190e-05       2.40829e-14       1.76264e-07       5.21761e-01       5.24215e-01       5.21761e-01      
 1.11600e+00       3.35069e-05       1.05186e-05       2.41024e-14       1.84120e-07       5.21761e-01       5.32010e-01       5.21761e-01      
 1.12500e+00       3.39312e-05       1.08221e-05       2.41218e-14       1.92408e-07       5.21761e-01       5.39817e-01       5.21761e-01      
 1.13400e+00       3.43510e-05       1.11294e-05       2.41411e-14       2.01163e-07       5.21761e-01       5.47638e-01       5.21761e-01      
 1.14300e+00       3.47661e-05       1.14404e-05       2.41602e-14       2.10425e-07       5.21761e-01       5.55471e-01       5.21761e-01      
 1.15200e+00       3.51764e-05       1.17551e-05       2.41793e-14       2.20233e-07       5.21761e-01       5.63317e-01       5.21761e-01      
 1.16100e+00       3.55817e-05       1.20736e-05       2.41984e-14       2.30636e-07       5.21761e-01       5.71177e-01       5.21761e-01      
 1.17000e+00       3.59821e-05       1.23956e-05       2.42174e-14       2.41684e-07       5.21761e-01       5.79049e-01       5.21761e-01      
 1.17900e+00       3.63774e-05       1.27212e-05       2.42365e-14       2.53434e-07       5.21761e-01       5.86934e-01       5.21761e-01      
 1.18800e+00       3.67674e-05       1.30504e-05       2.42556e-14       2.65949e-07       5.21761e-01       5.94833e-01       5.21761e-01      
 1.19700e+00       3.71521e-05       1.33830e-05       2.42748e-14       2.79299e-07       5.21761e-01       6.02745e-01       5.21761e-01      
 1.20600e+00       3.75313e-05       1.37191e-05       2.42941e-14       2.93561e-07       5.21761e-01       6.10670e-01       5.21761e-01      
 1.21500e+00       3.79048e-05       1.40586e-05       2.43136e-14       3.08821e-07       5.21761e-01       6.18608e-01       5.21761e-01      
