
dc (V)            getData("M0:gm    getData("M0:id    getData("M0:cg    getData("M0:gd    getData("M0:vt    getData("M0:vd    getData("M0:vt

 0.00000e+00       6.74720e-12       2.32497e-13       2.40237e-15       2.23455e-14       5.35249e-01       4.29348e-02       5.35249e-01      
 9.00000e-03       8.99582e-12       3.02857e-13       2.39317e-15       2.97948e-14       5.35249e-01       4.29349e-02       5.35249e-01      
 1.80000e-02       1.19934e-11       3.96663e-13       2.38425e-15       3.97265e-14       5.35249e-01       4.29349e-02       5.35249e-01      
 2.70000e-02       1.59892e-11       5.21725e-13       2.37562e-15       5.29674e-14       5.35249e-01       4.29349e-02       5.35249e-01      
 3.60000e-02       2.13153e-11       6.88449e-13       2.36728e-15       7.06193e-14       5.35249e-01       4.29349e-02       5.35249e-01      
 4.50000e-02       2.84140e-11       9.10704e-13       2.35923e-15       9.41505e-14       5.35249e-01       4.29350e-02       5.35249e-01      
 5.40000e-02       3.78744e-11       1.20697e-12       2.35149e-15       1.25517e-13       5.35249e-01       4.29350e-02       5.35249e-01      
 6.30000e-02       5.04808e-11       1.60186e-12       2.34408e-15       1.67326e-13       5.35249e-01       4.29351e-02       5.35249e-01      
 7.20000e-02       6.72774e-11       2.12816e-12       2.33701e-15       2.23047e-13       5.35249e-01       4.29352e-02       5.35249e-01      
 8.10000e-02       8.96538e-11       2.82954e-12       2.33031e-15       2.97306e-13       5.35249e-01       4.29353e-02       5.35249e-01      
 9.00000e-02       1.19459e-10       3.76415e-12       2.32402e-15       3.96255e-13       5.35249e-01       4.29355e-02       5.35249e-01      
 9.90000e-02       1.59150e-10       5.00938e-12       2.31818e-15       5.28090e-13       5.35249e-01       4.29358e-02       5.35249e-01      
 1.08000e-01       2.11995e-10       6.66820e-12       2.31285e-15       7.03713e-13       5.35249e-01       4.29361e-02       5.35249e-01      
 1.17000e-01       2.82333e-10       8.87762e-12       2.30808e-15       9.37624e-13       5.35249e-01       4.29365e-02       5.35249e-01      
 1.26000e-01       3.75926e-10       1.18198e-11       2.30396e-15       1.24911e-12       5.35249e-01       4.29370e-02       5.35249e-01      
 1.35000e-01       5.00416e-10       1.57367e-11       2.30059e-15       1.66378e-12       5.35249e-01       4.29378e-02       5.35249e-01      
 1.44000e-01       6.65929e-10       2.09500e-11       2.29809e-15       2.21568e-12       5.35249e-01       4.29388e-02       5.35249e-01      
 1.53000e-01       8.85870e-10       2.78863e-11       2.29660e-15       2.94995e-12       5.35249e-01       4.29401e-02       5.35249e-01      
 1.62000e-01       1.17790e-09       3.71114e-11       2.29621e-15       3.92647e-12       5.35249e-01       4.29418e-02       5.35249e-01      
 1.71000e-01       1.56538e-09       4.93741e-11       2.29719e-15       5.22446e-12       5.35249e-01       4.29441e-02       5.35249e-01      
 1.80000e-01       2.07909e-09       6.56659e-11       2.29981e-15       6.94876e-12       5.35249e-01       4.29472e-02       5.35249e-01      
 1.89000e-01       2.75948e-09       8.72965e-11       2.30436e-15       9.23787e-12       5.35249e-01       4.29513e-02       5.35249e-01      
 1.98000e-01       3.65958e-09       1.15994e-10       2.31115e-15       1.22744e-11       5.35249e-01       4.29567e-02       5.35249e-01      
 2.07000e-01       4.84872e-09       1.54034e-10       2.32059e-15       1.62987e-11       5.35249e-01       4.29638e-02       5.35249e-01      
 2.16000e-01       6.41722e-09       2.04406e-10       2.33309e-15       2.16262e-11       5.35249e-01       4.29733e-02       5.35249e-01      
 2.25000e-01       8.48229e-09       2.71030e-10       2.34915e-15       2.86701e-11       5.35249e-01       4.29859e-02       5.35249e-01      
 2.34000e-01       1.11953e-08       3.59027e-10       2.36930e-15       3.79695e-11       5.35249e-01       4.30024e-02       5.35249e-01      
 2.43000e-01       1.47508e-08       4.75068e-10       2.39412e-15       5.02251e-11       5.35249e-01       4.30242e-02       5.35249e-01      
 2.52000e-01       1.93970e-08       6.27807e-10       2.42422e-15       6.63439e-11       5.35249e-01       4.30529e-02       5.35249e-01      
 2.61000e-01       2.54486e-08       8.28422e-10       2.46025e-15       8.74932e-11       5.35249e-01       4.30905e-02       5.35249e-01      
 2.70000e-01       3.33009e-08       1.09127e-09       2.50285e-15       1.15166e-10       5.35249e-01       4.31397e-02       5.35249e-01      
 2.79000e-01       4.34465e-08       1.43471e-09       2.55266e-15       1.51259e-10       5.35249e-01       4.32038e-02       5.35249e-01      
 2.88000e-01       5.64917e-08       1.88200e-09       2.61028e-15       1.98160e-10       5.35249e-01       4.32870e-02       5.35249e-01      
 2.97000e-01       7.31745e-08       2.46246e-09       2.67625e-15       2.58845e-10       5.35249e-01       4.33946e-02       5.35249e-01      
 3.06000e-01       9.43805e-08       3.21269e-09       2.75103e-15       3.36984e-10       5.35249e-01       4.35329e-02       5.35249e-01      
 3.15000e-01       1.21157e-07       4.17800e-09       2.83498e-15       4.37041e-10       5.35249e-01       4.37096e-02       5.35249e-01      
 3.24000e-01       1.54723e-07       5.41387e-09       2.92834e-15       5.64367e-10       5.35249e-01       4.39340e-02       5.35249e-01      
 3.33000e-01       1.96468e-07       6.98753e-09       3.03120e-15       7.25267e-10       5.35249e-01       4.42166e-02       5.35249e-01      
 3.42000e-01       2.47951e-07       8.97949e-09       3.14351e-15       9.27031e-10       5.35249e-01       4.45697e-02       5.35249e-01      
 3.51000e-01       3.10881e-07       1.14850e-08       3.26507e-15       1.17791e-09       5.35249e-01       4.50066e-02       5.35249e-01      
 3.60000e-01       3.87086e-07       1.46152e-08       3.39551e-15       1.48702e-09       5.35249e-01       4.55420e-02       5.35249e-01      
 3.69000e-01       4.78480e-07       1.84981e-08       3.53432e-15       1.86417e-09       5.35249e-01       4.61908e-02       5.35249e-01      
 3.78000e-01       5.87010e-07       2.32792e-08       3.68084e-15       2.31966e-09       5.35249e-01       4.69681e-02       5.35249e-01      
 3.87000e-01       7.14609e-07       2.91215e-08       3.83429e-15       2.86395e-09       5.35249e-01       4.78883e-02       5.35249e-01      
 3.96000e-01       8.63140e-07       3.62050e-08       3.99376e-15       3.50737e-09       5.35249e-01       4.89647e-02       5.35249e-01      
 4.05000e-01       1.03437e-06       4.47261e-08       4.15827e-15       4.25980e-09       5.35249e-01       5.02086e-02       5.35249e-01      
 4.14000e-01       1.22995e-06       5.48967e-08       4.32675e-15       5.13043e-09       5.35249e-01       5.16289e-02       5.35249e-01      
 4.23000e-01       1.45143e-06       6.69429e-08       4.49810e-15       6.12761e-09       5.35249e-01       5.32325e-02       5.35249e-01      
 4.32000e-01       1.70033e-06       8.11047e-08       4.67121e-15       7.25879e-09       5.35249e-01       5.50236e-02       5.35249e-01      
 4.41000e-01       1.97817e-06       9.76357e-08       4.84496e-15       8.53058e-09       5.35249e-01       5.70045e-02       5.35249e-01      
 4.50000e-01       2.28658e-06       1.16803e-07       5.01828e-15       9.94891e-09       5.35249e-01       5.91759e-02       5.35249e-01      
 4.59000e-01       2.62738e-06       1.38891e-07       5.19015e-15       1.15192e-08       5.35249e-01       6.15372e-02       5.35249e-01      
 4.68000e-01       3.00260e-06       1.64200e-07       5.35962e-15       1.32467e-08       5.35249e-01       6.40872e-02       5.35249e-01      
 4.77000e-01       3.41448e-06       1.93048e-07       5.52583e-15       1.51365e-08       5.35249e-01       6.68246e-02       5.35249e-01      
 4.86000e-01       3.86550e-06       2.25778e-07       5.68802e-15       1.71940e-08       5.35249e-01       6.97479e-02       5.35249e-01      
 4.95000e-01       4.35822e-06       2.62752e-07       5.84553e-15       1.94247e-08       5.35249e-01       7.28559e-02       5.35249e-01      
 5.04000e-01       4.89527e-06       3.04359e-07       5.99783e-15       2.18346e-08       5.35249e-01       7.61476e-02       5.35249e-01      
 5.13000e-01       5.47920e-06       3.51008e-07       6.14448e-15       2.44296e-08       5.35249e-01       7.96222e-02       5.35249e-01      
 5.22000e-01       6.11236e-06       4.03132e-07       6.28515e-15       2.72164e-08       5.35249e-01       8.32789e-02       5.35249e-01      
 5.31000e-01       6.79682e-06       4.61184e-07       6.41960e-15       3.02014e-08       5.35249e-01       8.71171e-02       5.35249e-01      
 5.40000e-01       7.53428e-06       5.25634e-07       6.54769e-15       3.33913e-08       5.35249e-01       9.11356e-02       5.35249e-01      
 5.49000e-01       8.32597e-06       5.96964e-07       6.66938e-15       3.67928e-08       5.35249e-01       9.53331e-02       5.35249e-01      
 5.58000e-01       9.17259e-06       6.75666e-07       6.78466e-15       4.04123e-08       5.35249e-01       9.97078e-02       5.35249e-01      
 5.67000e-01       1.00743e-05       7.62236e-07       6.89363e-15       4.42561e-08       5.35249e-01       1.04257e-01       5.35249e-01      
 5.76000e-01       1.10308e-05       8.57168e-07       6.99641e-15       4.83303e-08       5.35249e-01       1.08979e-01       5.35249e-01      
 5.85000e-01       1.20410e-05       9.60951e-07       7.09317e-15       5.26404e-08       5.35249e-01       1.13868e-01       5.35249e-01      
 5.94000e-01       1.31035e-05       1.07406e-06       7.18412e-15       5.71920e-08       5.35249e-01       1.18922e-01       5.35249e-01      
 6.03000e-01       1.42164e-05       1.19697e-06       7.26950e-15       6.19898e-08       5.35249e-01       1.24134e-01       5.35249e-01      
 6.12000e-01       1.53773e-05       1.33010e-06       7.34955e-15       6.70386e-08       5.35249e-01       1.29501e-01       5.35249e-01      
 6.21000e-01       1.65836e-05       1.47389e-06       7.42455e-15       7.23427e-08       5.35249e-01       1.35015e-01       5.35249e-01      
 6.30000e-01       1.78321e-05       1.62873e-06       7.49475e-15       7.79060e-08       5.35249e-01       1.40670e-01       5.35249e-01      
 6.39000e-01       1.91198e-05       1.79499e-06       7.56043e-15       8.37323e-08       5.35249e-01       1.46461e-01       5.35249e-01      
 6.48000e-01       2.04433e-05       1.97300e-06       7.62187e-15       8.98253e-08       5.35249e-01       1.52379e-01       5.35249e-01      
 6.57000e-01       2.17991e-05       2.16306e-06       7.67932e-15       9.61884e-08       5.35249e-01       1.58420e-01       5.35249e-01      
 6.66000e-01       2.31838e-05       2.36547e-06       7.73305e-15       1.02825e-07       5.35249e-01       1.64574e-01       5.35249e-01      
 6.75000e-01       2.45941e-05       2.58045e-06       7.78331e-15       1.09738e-07       5.35249e-01       1.70837e-01       5.35249e-01      
 6.84000e-01       2.60267e-05       2.80823e-06       7.83033e-15       1.16932e-07       5.35249e-01       1.77199e-01       5.35249e-01      
 6.93000e-01       2.74784e-05       3.04899e-06       7.87435e-15       1.24410e-07       5.35249e-01       1.83656e-01       5.35249e-01      
 7.02000e-01       2.89462e-05       3.30289e-06       7.91557e-15       1.32176e-07       5.35249e-01       1.90201e-01       5.35249e-01      
 7.11000e-01       3.04273e-05       3.57006e-06       7.95421e-15       1.40233e-07       5.35249e-01       1.96827e-01       5.35249e-01      
 7.20000e-01       3.19191e-05       3.85061e-06       7.99045e-15       1.48586e-07       5.35249e-01       2.03529e-01       5.35249e-01      
 7.29000e-01       3.34190e-05       4.14463e-06       8.02447e-15       1.57240e-07       5.35249e-01       2.10300e-01       5.35249e-01      
 7.38000e-01       3.49248e-05       4.45217e-06       8.05643e-15       1.66200e-07       5.35249e-01       2.17136e-01       5.35249e-01      
 7.47000e-01       3.64346e-05       4.77329e-06       8.08650e-15       1.75471e-07       5.35249e-01       2.24032e-01       5.35249e-01      
 7.56000e-01       3.79465e-05       5.10800e-06       8.11482e-15       1.85059e-07       5.35249e-01       2.30982e-01       5.35249e-01      
 7.65000e-01       3.94588e-05       5.45633e-06       8.14151e-15       1.94970e-07       5.35249e-01       2.37983e-01       5.35249e-01      
 7.74000e-01       4.09700e-05       5.81826e-06       8.16671e-15       2.05211e-07       5.35249e-01       2.45029e-01       5.35249e-01      
 7.83000e-01       4.24787e-05       6.19378e-06       8.19053e-15       2.15790e-07       5.35249e-01       2.52119e-01       5.35249e-01      
 7.92000e-01       4.39839e-05       6.58286e-06       8.21306e-15       2.26715e-07       5.35249e-01       2.59247e-01       5.35249e-01      
 8.01000e-01       4.54844e-05       6.98547e-06       8.23442e-15       2.37994e-07       5.35249e-01       2.66410e-01       5.35249e-01      
 8.10000e-01       4.69794e-05       7.40157e-06       8.25468e-15       2.49637e-07       5.35249e-01       2.73606e-01       5.35249e-01      
 8.19000e-01       4.84679e-05       7.83108e-06       8.27394e-15       2.61655e-07       5.35249e-01       2.80833e-01       5.35249e-01      
 8.28000e-01       4.99493e-05       8.27397e-06       8.29225e-15       2.74057e-07       5.35249e-01       2.88086e-01       5.35249e-01      
 8.37000e-01       5.14230e-05       8.73015e-06       8.30971e-15       2.86856e-07       5.35249e-01       2.95365e-01       5.35249e-01      
 8.46000e-01       5.28885e-05       9.19956e-06       8.32635e-15       3.00063e-07       5.35249e-01       3.02666e-01       5.35249e-01      
 8.55000e-01       5.43451e-05       9.68211e-06       8.34226e-15       3.13694e-07       5.35249e-01       3.09988e-01       5.35249e-01      
 8.64000e-01       5.57925e-05       1.01777e-05       8.35747e-15       3.27761e-07       5.35249e-01       3.17330e-01       5.35249e-01      
 8.73000e-01       5.72303e-05       1.06864e-05       8.37204e-15       3.42279e-07       5.35249e-01       3.24690e-01       5.35249e-01      
 8.82000e-01       5.86582e-05       1.12079e-05       8.38601e-15       3.57267e-07       5.35249e-01       3.32066e-01       5.35249e-01      
 8.91000e-01       6.00758e-05       1.17422e-05       8.39943e-15       3.72740e-07       5.35249e-01       3.39456e-01       5.35249e-01      
 9.00000e-01       6.14830e-05       1.22892e-05       8.41233e-15       3.88717e-07       5.35249e-01       3.46861e-01       5.35249e-01      
 9.09000e-01       6.28793e-05       1.28488e-05       8.42475e-15       4.05219e-07       5.35249e-01       3.54278e-01       5.35249e-01      
 9.18000e-01       6.42647e-05       1.34210e-05       8.43672e-15       4.22266e-07       5.35249e-01       3.61708e-01       5.35249e-01      
 9.27000e-01       6.56389e-05       1.40056e-05       8.44828e-15       4.39880e-07       5.35249e-01       3.69148e-01       5.35249e-01      
 9.36000e-01       6.70017e-05       1.46025e-05       8.45944e-15       4.58087e-07       5.35249e-01       3.76599e-01       5.35249e-01      
 9.45000e-01       6.83529e-05       1.52116e-05       8.47025e-15       4.76912e-07       5.35249e-01       3.84059e-01       5.35249e-01      
 9.54000e-01       6.96924e-05       1.58328e-05       8.48072e-15       4.96383e-07       5.35249e-01       3.91528e-01       5.35249e-01      
 9.63000e-01       7.10200e-05       1.64660e-05       8.49088e-15       5.16527e-07       5.35249e-01       3.99005e-01       5.35249e-01      
 9.72000e-01       7.23354e-05       1.71111e-05       8.50074e-15       5.37378e-07       5.35249e-01       4.06491e-01       5.35249e-01      
 9.81000e-01       7.36387e-05       1.77680e-05       8.51034e-15       5.58968e-07       5.35249e-01       4.13984e-01       5.35249e-01      
 9.90000e-01       7.49295e-05       1.84366e-05       8.51968e-15       5.81334e-07       5.35249e-01       4.21484e-01       5.35249e-01      
 9.99000e-01       7.62078e-05       1.91167e-05       8.52879e-15       6.04513e-07       5.35249e-01       4.28991e-01       5.35249e-01      
 1.00800e+00       7.74733e-05       1.98083e-05       8.53769e-15       6.28547e-07       5.35249e-01       4.36505e-01       5.35249e-01      
 1.01700e+00       7.87260e-05       2.05112e-05       8.54639e-15       6.53479e-07       5.35249e-01       4.44024e-01       5.35249e-01      
 1.02600e+00       7.99656e-05       2.12253e-05       8.55490e-15       6.79357e-07       5.35249e-01       4.51551e-01       5.35249e-01      
 1.03500e+00       8.11920e-05       2.19505e-05       8.56325e-15       7.06232e-07       5.35249e-01       4.59083e-01       5.35249e-01      
 1.04400e+00       8.24051e-05       2.26867e-05       8.57145e-15       7.34156e-07       5.35249e-01       4.66621e-01       5.35249e-01      
 1.05300e+00       8.36046e-05       2.34337e-05       8.57950e-15       7.63190e-07       5.35249e-01       4.74164e-01       5.35249e-01      
 1.06200e+00       8.47904e-05       2.41915e-05       8.58744e-15       7.93395e-07       5.35249e-01       4.81713e-01       5.35249e-01      
 1.07100e+00       8.59623e-05       2.49599e-05       8.59526e-15       8.24839e-07       5.35249e-01       4.89268e-01       5.35249e-01      
 1.08000e+00       8.71202e-05       2.57388e-05       8.60298e-15       8.57594e-07       5.35249e-01       4.96829e-01       5.35249e-01      
 1.08900e+00       8.82638e-05       2.65281e-05       8.61061e-15       8.91740e-07       5.35249e-01       5.04394e-01       5.35249e-01      
 1.09800e+00       8.93930e-05       2.73275e-05       8.61817e-15       9.27360e-07       5.35249e-01       5.11966e-01       5.35249e-01      
 1.10700e+00       9.05076e-05       2.81371e-05       8.62567e-15       9.64546e-07       5.35249e-01       5.19542e-01       5.35249e-01      
 1.11600e+00       9.16074e-05       2.89566e-05       8.63312e-15       1.00340e-06       5.35249e-01       5.27125e-01       5.35249e-01      
 1.12500e+00       9.26922e-05       2.97860e-05       8.64054e-15       1.04402e-06       5.35249e-01       5.34712e-01       5.35249e-01      
 1.13400e+00       9.37617e-05       3.06250e-05       8.64793e-15       1.08653e-06       5.35249e-01       5.42305e-01       5.35249e-01      
 1.14300e+00       9.48158e-05       3.14736e-05       8.65530e-15       1.13105e-06       5.35249e-01       5.49904e-01       5.35249e-01      
 1.15200e+00       9.58543e-05       3.23317e-05       8.66268e-15       1.17773e-06       5.35249e-01       5.57509e-01       5.35249e-01      
 1.16100e+00       9.68768e-05       3.31990e-05       8.67007e-15       1.22670e-06       5.35249e-01       5.65119e-01       5.35249e-01      
 1.17000e+00       9.78832e-05       3.40754e-05       8.67748e-15       1.27813e-06       5.35249e-01       5.72735e-01       5.35249e-01      
 1.17900e+00       9.88732e-05       3.49608e-05       8.68493e-15       1.33220e-06       5.35249e-01       5.80357e-01       5.35249e-01      
 1.18800e+00       9.98465e-05       3.58551e-05       8.69244e-15       1.38909e-06       5.35249e-01       5.87985e-01       5.35249e-01      
 1.19700e+00       1.00803e-04       3.67580e-05       8.70000e-15       1.44901e-06       5.35249e-01       5.95619e-01       5.35249e-01      
 1.20600e+00       1.01742e-04       3.76695e-05       8.70765e-15       1.51220e-06       5.35249e-01       6.03259e-01       5.35249e-01      
 1.21500e+00       1.02664e-04       3.85893e-05       8.71539e-15       1.57890e-06       5.35249e-01       6.10905e-01       5.35249e-01      
