
dc (V)            getData("M0:gm    getData("M0:id    getData("M0:cg    getData("M0:gd    getData("M0:vt    getData("M0:vd    getData("M0:vt

 0.00000e+00       2.47565e-12       9.76536e-14       6.42753e-15       3.42003e-15       5.21284e-01       4.07221e-02       5.21284e-01      
 9.00000e-03       3.31601e-12       1.23532e-13       6.39921e-15       4.58135e-15       5.21284e-01       4.07221e-02       5.21284e-01      
 1.80000e-02       4.44144e-12       1.58195e-13       6.37182e-15       6.13683e-15       5.21284e-01       4.07222e-02       5.21284e-01      
 2.70000e-02       5.94855e-12       2.04620e-13       6.34537e-15       8.22018e-15       5.21284e-01       4.07222e-02       5.21284e-01      
 3.60000e-02       7.96664e-12       2.66797e-13       6.31990e-15       1.10104e-14       5.21284e-01       4.07222e-02       5.21284e-01      
 4.50000e-02       1.06687e-11       3.50066e-13       6.29542e-15       1.47471e-14       5.21284e-01       4.07223e-02       5.21284e-01      
 5.40000e-02       1.42861e-11       4.61572e-13       6.27201e-15       1.97509e-14       5.21284e-01       4.07223e-02       5.21284e-01      
 6.30000e-02       1.91285e-11       6.10880e-13       6.24971e-15       2.64512e-14       5.21284e-01       4.07224e-02       5.21284e-01      
 7.20000e-02       2.56095e-11       8.10787e-13       6.22862e-15       3.54219e-14       5.21284e-01       4.07226e-02       5.21284e-01      
 8.10000e-02       3.42824e-11       1.07841e-12       6.20885e-15       4.74314e-14       5.21284e-01       4.07227e-02       5.21284e-01      
 9.00000e-02       4.58859e-11       1.43664e-12       6.19053e-15       6.35066e-14       5.21284e-01       4.07229e-02       5.21284e-01      
 9.90000e-02       6.14067e-11       1.91607e-12       6.17382e-15       8.50209e-14       5.21284e-01       4.07232e-02       5.21284e-01      
 1.08000e-01       8.21615e-11       2.55762e-12       6.15894e-15       1.13809e-13       5.21284e-01       4.07236e-02       5.21284e-01      
 1.17000e-01       1.09906e-10       3.41589e-12       6.14615e-15       1.52323e-13       5.21284e-01       4.07241e-02       5.21284e-01      
 1.26000e-01       1.46981e-10       4.56384e-12       6.13577e-15       2.03833e-13       5.21284e-01       4.07248e-02       5.21284e-01      
 1.35000e-01       1.96500e-10       6.09878e-12       6.12817e-15       2.72708e-13       5.21284e-01       4.07258e-02       5.21284e-01      
 1.44000e-01       2.62605e-10       8.15046e-12       6.12382e-15       3.64766e-13       5.21284e-01       4.07270e-02       5.21284e-01      
 1.53000e-01       3.50796e-10       1.08917e-11       6.12329e-15       4.87760e-13       5.21284e-01       4.07287e-02       5.21284e-01      
 1.62000e-01       4.68333e-10       1.45526e-11       6.12689e-15       6.52002e-13       5.21284e-01       4.07309e-02       5.21284e-01      
 1.71000e-01       6.24864e-10       1.94384e-11       6.13576e-15       8.71187e-13       5.21284e-01       4.07338e-02       5.21284e-01      
 1.80000e-01       8.33108e-10       2.59548e-11       6.15082e-15       1.16349e-12       5.21284e-01       4.07378e-02       5.21284e-01      
 1.89000e-01       1.10981e-09       3.46392e-11       6.17315e-15       1.55299e-12       5.21284e-01       4.07431e-02       5.21284e-01      
 1.98000e-01       1.47695e-09       4.62021e-11       6.20399e-15       2.07149e-12       5.21284e-01       4.07501e-02       5.21284e-01      
 2.07000e-01       1.96327e-09       6.15810e-11       6.24475e-15       2.76093e-12       5.21284e-01       4.07594e-02       5.21284e-01      
 2.16000e-01       2.60621e-09       8.20097e-11       6.29700e-15       3.67646e-12       5.21284e-01       4.07717e-02       5.21284e-01      
 2.25000e-01       3.45427e-09       1.09107e-10       6.36249e-15       4.89029e-12       5.21284e-01       4.07881e-02       5.21284e-01      
 2.34000e-01       4.56994e-09       1.44988e-10       6.44311e-15       6.49667e-12       5.21284e-01       4.08098e-02       5.21284e-01      
 2.43000e-01       6.03323e-09       1.92406e-10       6.54084e-15       8.61796e-12       5.21284e-01       4.08384e-02       5.21284e-01      
 2.52000e-01       7.94572e-09       2.54931e-10       6.65774e-15       1.14122e-11       5.21284e-01       4.08760e-02       5.21284e-01      
 2.61000e-01       1.04353e-08       3.37158e-10       6.79591e-15       1.50820e-11       5.21284e-01       4.09255e-02       5.21284e-01      
 2.70000e-01       1.36615e-08       4.44972e-10       6.95735e-15       1.98856e-11       5.21284e-01       4.09901e-02       5.21284e-01      
 2.79000e-01       1.78205e-08       5.85858e-10       7.14396e-15       2.61484e-11       5.21284e-01       4.10742e-02       5.21284e-01      
 2.88000e-01       2.31515e-08       7.69253e-10       7.35742e-15       3.42772e-11       5.21284e-01       4.11833e-02       5.21284e-01      
 2.97000e-01       2.99409e-08       1.00696e-09       7.59911e-15       4.47739e-11       5.21284e-01       4.13238e-02       5.21284e-01      
 3.06000e-01       3.85269e-08       1.31357e-09       7.87007e-15       5.82493e-11       5.21284e-01       4.15037e-02       5.21284e-01      
 3.15000e-01       4.93019e-08       1.70700e-09       8.17093e-15       7.54362e-11       5.21284e-01       4.17323e-02       5.21284e-01      
 3.24000e-01       6.27126e-08       2.20891e-09       8.50181e-15       9.71976e-11       5.21284e-01       4.20205e-02       5.21284e-01      
 3.33000e-01       7.92570e-08       2.84522e-09       8.86238e-15       1.24531e-10       5.21284e-01       4.23806e-02       5.21284e-01      
 3.42000e-01       9.94788e-08       3.64656e-09       9.25177e-15       1.58565e-10       5.21284e-01       4.28260e-02       5.21284e-01      
 3.51000e-01       1.23958e-07       4.64861e-09       9.66862e-15       2.00545e-10       5.21284e-01       4.33711e-02       5.21284e-01      
 3.60000e-01       1.53296e-07       5.89238e-09       1.01111e-14       2.51815e-10       5.21284e-01       4.40304e-02       5.21284e-01      
 3.69000e-01       1.88104e-07       7.42434e-09       1.05768e-14       3.13786e-10       5.21284e-01       4.48185e-02       5.21284e-01      
 3.78000e-01       2.28985e-07       9.29647e-09       1.10631e-14       3.87896e-10       5.21284e-01       4.57490e-02       5.21284e-01      
 3.87000e-01       2.76523e-07       1.15661e-08       1.15669e-14       4.75577e-10       5.21284e-01       4.68337e-02       5.21284e-01      
 3.96000e-01       3.31273e-07       1.42955e-08       1.20850e-14       5.78217e-10       5.21284e-01       4.80829e-02       5.21284e-01      
 4.05000e-01       3.93763e-07       1.75522e-08       1.26137e-14       6.97132e-10       5.21284e-01       4.95043e-02       5.21284e-01      
 4.14000e-01       4.64505e-07       2.14080e-08       1.31497e-14       8.33552e-10       5.21284e-01       5.11033e-02       5.21284e-01      
 4.23000e-01       5.44016e-07       2.59396e-08       1.36891e-14       9.88616e-10       5.21284e-01       5.28835e-02       5.21284e-01      
 4.32000e-01       6.32841e-07       3.12282e-08       1.42286e-14       1.16339e-09       5.21284e-01       5.48463e-02       5.21284e-01      
 4.41000e-01       7.31578e-07       3.73605e-08       1.47648e-14       1.35887e-09       5.21284e-01       5.69921e-02       5.21284e-01      
 4.50000e-01       8.40894e-07       4.44284e-08       1.52944e-14       1.57603e-09       5.21284e-01       5.93203e-02       5.21284e-01      
 4.59000e-01       9.61540e-07       5.25305e-08       1.58148e-14       1.81585e-09       5.21284e-01       6.18301e-02       5.21284e-01      
 4.68000e-01       1.09433e-06       6.17725e-08       1.63232e-14       2.07931e-09       5.21284e-01       6.45206e-02       5.21284e-01      
 4.77000e-01       1.24016e-06       7.22676e-08       1.68174e-14       2.36744e-09       5.21284e-01       6.73910e-02       5.21284e-01      
 4.86000e-01       1.39992e-06       8.41372e-08       1.72957e-14       2.68129e-09       5.21284e-01       7.04409e-02       5.21284e-01      
 4.95000e-01       1.57452e-06       9.75107e-08       1.77565e-14       3.02197e-09       5.21284e-01       7.36698e-02       5.21284e-01      
 5.04000e-01       1.76482e-06       1.12526e-07       1.81985e-14       3.39063e-09       5.21284e-01       7.70777e-02       5.21284e-01      
 5.13000e-01       1.97161e-06       1.29327e-07       1.86211e-14       3.78844e-09       5.21284e-01       8.06643e-02       5.21284e-01      
 5.22000e-01       2.19556e-06       1.48066e-07       1.90237e-14       4.21655e-09       5.21284e-01       8.44294e-02       5.21284e-01      
 5.31000e-01       2.43721e-06       1.68900e-07       1.94060e-14       4.67615e-09       5.21284e-01       8.83722e-02       5.21284e-01      
 5.40000e-01       2.69694e-06       1.91990e-07       1.97680e-14       5.16837e-09       5.21284e-01       9.24917e-02       5.21284e-01      
 5.49000e-01       2.97494e-06       2.17500e-07       2.01099e-14       5.69433e-09       5.21284e-01       9.67861e-02       5.21284e-01      
 5.58000e-01       3.27125e-06       2.45594e-07       2.04322e-14       6.25506e-09       5.21284e-01       1.01253e-01       5.21284e-01      
 5.67000e-01       3.58570e-06       2.76437e-07       2.07353e-14       6.85158e-09       5.21284e-01       1.05890e-01       5.21284e-01      
 5.76000e-01       3.91794e-06       3.10190e-07       2.10199e-14       7.48480e-09       5.21284e-01       1.10693e-01       5.21284e-01      
 5.85000e-01       4.26748e-06       3.47012e-07       2.12868e-14       8.15560e-09       5.21284e-01       1.15658e-01       5.21284e-01      
 5.94000e-01       4.63367e-06       3.87055e-07       2.15367e-14       8.86477e-09       5.21284e-01       1.20781e-01       5.21284e-01      
 6.03000e-01       5.01572e-06       4.30465e-07       2.17705e-14       9.61305e-09       5.21284e-01       1.26055e-01       5.21284e-01      
 6.12000e-01       5.41274e-06       4.77382e-07       2.19890e-14       1.04011e-08       5.21284e-01       1.31475e-01       5.21284e-01      
 6.21000e-01       5.82378e-06       5.27937e-07       2.21931e-14       1.12296e-08       5.21284e-01       1.37035e-01       5.21284e-01      
 6.30000e-01       6.24780e-06       5.82249e-07       2.23838e-14       1.20991e-08       5.21284e-01       1.42729e-01       5.21284e-01      
 6.39000e-01       6.68374e-06       6.40433e-07       2.25618e-14       1.30103e-08       5.21284e-01       1.48550e-01       5.21284e-01      
 6.48000e-01       7.13053e-06       7.02589e-07       2.27279e-14       1.39635e-08       5.21284e-01       1.54491e-01       5.21284e-01      
 6.57000e-01       7.58709e-06       7.68812e-07       2.28831e-14       1.49595e-08       5.21284e-01       1.60547e-01       5.21284e-01      
 6.66000e-01       8.05236e-06       8.39183e-07       2.30279e-14       1.59987e-08       5.21284e-01       1.66709e-01       5.21284e-01      
 6.75000e-01       8.52535e-06       9.13777e-07       2.31633e-14       1.70818e-08       5.21284e-01       1.72973e-01       5.21284e-01      
 6.84000e-01       9.00506e-06       9.92659e-07       2.32898e-14       1.82092e-08       5.21284e-01       1.79332e-01       5.21284e-01      
 6.93000e-01       9.49059e-06       1.07589e-06       2.34082e-14       1.93817e-08       5.21284e-01       1.85779e-01       5.21284e-01      
 7.02000e-01       9.98106e-06       1.16350e-06       2.35190e-14       2.06000e-08       5.21284e-01       1.92309e-01       5.21284e-01      
 7.11000e-01       1.04757e-05       1.25556e-06       2.36227e-14       2.18648e-08       5.21284e-01       1.98917e-01       5.21284e-01      
 7.20000e-01       1.09737e-05       1.35208e-06       2.37201e-14       2.31768e-08       5.21284e-01       2.05596e-01       5.21284e-01      
 7.29000e-01       1.14745e-05       1.45309e-06       2.38114e-14       2.45370e-08       5.21284e-01       2.12343e-01       5.21284e-01      
 7.38000e-01       1.19774e-05       1.55862e-06       2.38973e-14       2.59464e-08       5.21284e-01       2.19153e-01       5.21284e-01      
 7.47000e-01       1.24819e-05       1.66869e-06       2.39780e-14       2.74059e-08       5.21284e-01       2.26021e-01       5.21284e-01      
 7.56000e-01       1.29874e-05       1.78330e-06       2.40541e-14       2.89168e-08       5.21284e-01       2.32943e-01       5.21284e-01      
 7.65000e-01       1.34936e-05       1.90247e-06       2.41259e-14       3.04802e-08       5.21284e-01       2.39916e-01       5.21284e-01      
 7.74000e-01       1.40000e-05       2.02619e-06       2.41936e-14       3.20976e-08       5.21284e-01       2.46935e-01       5.21284e-01      
 7.83000e-01       1.45063e-05       2.15447e-06       2.42577e-14       3.37703e-08       5.21284e-01       2.53999e-01       5.21284e-01      
 7.92000e-01       1.50121e-05       2.28730e-06       2.43184e-14       3.55000e-08       5.21284e-01       2.61103e-01       5.21284e-01      
 8.01000e-01       1.55173e-05       2.42468e-06       2.43759e-14       3.72884e-08       5.21284e-01       2.68246e-01       5.21284e-01      
 8.10000e-01       1.60214e-05       2.56661e-06       2.44306e-14       3.91374e-08       5.21284e-01       2.75424e-01       5.21284e-01      
 8.19000e-01       1.65244e-05       2.71306e-06       2.44826e-14       4.10489e-08       5.21284e-01       2.82636e-01       5.21284e-01      
 8.28000e-01       1.70260e-05       2.86404e-06       2.45321e-14       4.30252e-08       5.21284e-01       2.89879e-01       5.21284e-01      
 8.37000e-01       1.75261e-05       3.01953e-06       2.45793e-14       4.50685e-08       5.21284e-01       2.97152e-01       5.21284e-01      
 8.46000e-01       1.80244e-05       3.17951e-06       2.46243e-14       4.71815e-08       5.21284e-01       3.04452e-01       5.21284e-01      
 8.55000e-01       1.85209e-05       3.34396e-06       2.46675e-14       4.93667e-08       5.21284e-01       3.11779e-01       5.21284e-01      
 8.64000e-01       1.90154e-05       3.51288e-06       2.47087e-14       5.16271e-08       5.21284e-01       3.19130e-01       5.21284e-01      
 8.73000e-01       1.95078e-05       3.68623e-06       2.47483e-14       5.39658e-08       5.21284e-01       3.26505e-01       5.21284e-01      
 8.82000e-01       1.99981e-05       3.86401e-06       2.47864e-14       5.63861e-08       5.21284e-01       3.33902e-01       5.21284e-01      
 8.91000e-01       2.04861e-05       4.04619e-06       2.48230e-14       5.88917e-08       5.21284e-01       3.41320e-01       5.21284e-01      
 9.00000e-01       2.09717e-05       4.23275e-06       2.48582e-14       6.14864e-08       5.21284e-01       3.48759e-01       5.21284e-01      
 9.09000e-01       2.14548e-05       4.42367e-06       2.48921e-14       6.41744e-08       5.21284e-01       3.56217e-01       5.21284e-01      
 9.18000e-01       2.19354e-05       4.61893e-06       2.49249e-14       6.69601e-08       5.21284e-01       3.63694e-01       5.21284e-01      
 9.27000e-01       2.24134e-05       4.81850e-06       2.49566e-14       6.98484e-08       5.21284e-01       3.71189e-01       5.21284e-01      
 9.36000e-01       2.28887e-05       5.02237e-06       2.49873e-14       7.28443e-08       5.21284e-01       3.78701e-01       5.21284e-01      
 9.45000e-01       2.33613e-05       5.23049e-06       2.50170e-14       7.59535e-08       5.21284e-01       3.86230e-01       5.21284e-01      
 9.54000e-01       2.38310e-05       5.44286e-06       2.50459e-14       7.91819e-08       5.21284e-01       3.93776e-01       5.21284e-01      
 9.63000e-01       2.42978e-05       5.65944e-06       2.50739e-14       8.25360e-08       5.21284e-01       4.01337e-01       5.21284e-01      
 9.72000e-01       2.47617e-05       5.88021e-06       2.51011e-14       8.60227e-08       5.21284e-01       4.08914e-01       5.21284e-01      
 9.81000e-01       2.52225e-05       6.10514e-06       2.51277e-14       8.96496e-08       5.21284e-01       4.16506e-01       5.21284e-01      
 9.90000e-01       2.56803e-05       6.33421e-06       2.51536e-14       9.34247e-08       5.21284e-01       4.24112e-01       5.21284e-01      
 9.99000e-01       2.61348e-05       6.56738e-06       2.51788e-14       9.73569e-08       5.21284e-01       4.31734e-01       5.21284e-01      
 1.00800e+00       2.65862e-05       6.80463e-06       2.52035e-14       1.01456e-07       5.21284e-01       4.39369e-01       5.21284e-01      
 1.01700e+00       2.70342e-05       7.04592e-06       2.52277e-14       1.05731e-07       5.21284e-01       4.47019e-01       5.21284e-01      
 1.02600e+00       2.74788e-05       7.29123e-06       2.52513e-14       1.10195e-07       5.21284e-01       4.54683e-01       5.21284e-01      
 1.03500e+00       2.79200e-05       7.54053e-06       2.52746e-14       1.14858e-07       5.21284e-01       4.62360e-01       5.21284e-01      
 1.04400e+00       2.83576e-05       7.79378e-06       2.52973e-14       1.19735e-07       5.21284e-01       4.70051e-01       5.21284e-01      
 1.05300e+00       2.87917e-05       8.05095e-06       2.53197e-14       1.24839e-07       5.21284e-01       4.77756e-01       5.21284e-01      
 1.06200e+00       2.92221e-05       8.31202e-06       2.53418e-14       1.30187e-07       5.21284e-01       4.85474e-01       5.21284e-01      
 1.07100e+00       2.96487e-05       8.57694e-06       2.53635e-14       1.35794e-07       5.21284e-01       4.93205e-01       5.21284e-01      
 1.08000e+00       3.00715e-05       8.84568e-06       2.53850e-14       1.41681e-07       5.21284e-01       5.00950e-01       5.21284e-01      
 1.08900e+00       3.04904e-05       9.11822e-06       2.54061e-14       1.47866e-07       5.21284e-01       5.08708e-01       5.21284e-01      
 1.09800e+00       3.09053e-05       9.39450e-06       2.54271e-14       1.54373e-07       5.21284e-01       5.16479e-01       5.21284e-01      
 1.10700e+00       3.13161e-05       9.67450e-06       2.54478e-14       1.61225e-07       5.21284e-01       5.24263e-01       5.21284e-01      
 1.11600e+00       3.17228e-05       9.95818e-06       2.54684e-14       1.68450e-07       5.21284e-01       5.32060e-01       5.21284e-01      
 1.12500e+00       3.21252e-05       1.02455e-05       2.54888e-14       1.76077e-07       5.21284e-01       5.39871e-01       5.21284e-01      
 1.13400e+00       3.25233e-05       1.05364e-05       2.55091e-14       1.84138e-07       5.21284e-01       5.47694e-01       5.21284e-01      
 1.14300e+00       3.29170e-05       1.08309e-05       2.55293e-14       1.92669e-07       5.21284e-01       5.55531e-01       5.21284e-01      
 1.15200e+00       3.33062e-05       1.11289e-05       2.55494e-14       2.01710e-07       5.21284e-01       5.63381e-01       5.21284e-01      
 1.16100e+00       3.36907e-05       1.14304e-05       2.55695e-14       2.11303e-07       5.21284e-01       5.71244e-01       5.21284e-01      
 1.17000e+00       3.40706e-05       1.17353e-05       2.55896e-14       2.21497e-07       5.21284e-01       5.79120e-01       5.21284e-01      
 1.17900e+00       3.44456e-05       1.20437e-05       2.56097e-14       2.32346e-07       5.21284e-01       5.87010e-01       5.21284e-01      
 1.18800e+00       3.48157e-05       1.23553e-05       2.56299e-14       2.43908e-07       5.21284e-01       5.94912e-01       5.21284e-01      
 1.19700e+00       3.51807e-05       1.26703e-05       2.56501e-14       2.56248e-07       5.21284e-01       6.02828e-01       5.21284e-01      
 1.20600e+00       3.55406e-05       1.29886e-05       2.56705e-14       2.69441e-07       5.21284e-01       6.10758e-01       5.21284e-01      
 1.21500e+00       3.58953e-05       1.33100e-05       2.56909e-14       2.83567e-07       5.21284e-01       6.18701e-01       5.21284e-01      
