
dc (V)            getData("M0:gm    getData("M0:id    getData("M0:cg    getData("M0:gd    getData("M0:vt    getData("M0:vd    getData("M0:vt

 0.00000e+00       1.12940e-12       5.60514e-14       1.44801e-14       8.33428e-16       5.16155e-01       4.00490e-02       5.16155e-01      
 9.00000e-03       1.51480e-12       6.78656e-14       1.44137e-14       1.11792e-15       5.16155e-01       4.00490e-02       5.16155e-01      
 1.80000e-02       2.03161e-12       8.37108e-14       1.43495e-14       1.49949e-15       5.16155e-01       4.00491e-02       5.16155e-01      
 2.70000e-02       2.72462e-12       1.04962e-13       1.42876e-14       2.01123e-15       5.16155e-01       4.00491e-02       5.16155e-01      
 3.60000e-02       3.65380e-12       1.33460e-13       1.42281e-14       2.69750e-15       5.16155e-01       4.00491e-02       5.16155e-01      
 4.50000e-02       4.89952e-12       1.71677e-13       1.41710e-14       3.61778e-15       5.16155e-01       4.00492e-02       5.16155e-01      
 5.40000e-02       6.56944e-12       2.22921e-13       1.41164e-14       4.85177e-15       5.16155e-01       4.00493e-02       5.16155e-01      
 6.30000e-02       8.80770e-12       2.91627e-13       1.40647e-14       6.50626e-15       5.16155e-01       4.00494e-02       5.16155e-01      
 7.20000e-02       1.18073e-11       3.83737e-13       1.40159e-14       8.72431e-15       5.16155e-01       4.00495e-02       5.16155e-01      
 8.10000e-02       1.58263e-11       5.07207e-13       1.39704e-14       1.16975e-14       5.16155e-01       4.00497e-02       5.16155e-01      
 9.00000e-02       2.12102e-11       6.72693e-13       1.39284e-14       1.56825e-14       5.16155e-01       4.00499e-02       5.16155e-01      
 9.90000e-02       2.84206e-11       8.94455e-13       1.38906e-14       2.10225e-14       5.16155e-01       4.00502e-02       5.16155e-01      
 1.08000e-01       3.80741e-11       1.19157e-12       1.38573e-14       2.81770e-14       5.16155e-01       4.00507e-02       5.16155e-01      
 1.17000e-01       5.09942e-11       1.58956e-12       1.38293e-14       3.77604e-14       5.16155e-01       4.00512e-02       5.16155e-01      
 1.26000e-01       6.82790e-11       2.12253e-12       1.38073e-14       5.05936e-14       5.16155e-01       4.00520e-02       5.16155e-01      
 1.35000e-01       9.13914e-11       2.83602e-12       1.37925e-14       6.77733e-14       5.16155e-01       4.00530e-02       5.16155e-01      
 1.44000e-01       1.22278e-10       3.79083e-12       1.37859e-14       9.07627e-14       5.16155e-01       4.00544e-02       5.16155e-01      
 1.53000e-01       1.63527e-10       5.06803e-12       1.37889e-14       1.21513e-13       5.16155e-01       4.00563e-02       5.16155e-01      
 1.62000e-01       2.18553e-10       6.77552e-12       1.38026e-14       1.62620e-13       5.16155e-01       4.00587e-02       5.16155e-01      
 1.71000e-01       2.91900e-10       9.05680e-12       1.38297e-14       2.17536e-13       5.16155e-01       4.00620e-02       5.16155e-01      
 1.80000e-01       3.89558e-10       1.21025e-11       1.38726e-14       2.90845e-13       5.16155e-01       4.00664e-02       5.16155e-01      
 1.89000e-01       5.19409e-10       1.61652e-11       1.39339e-14       3.88618e-13       5.16155e-01       4.00723e-02       5.16155e-01      
 1.98000e-01       6.91802e-10       2.15791e-11       1.40169e-14       5.18884e-13       5.16155e-01       4.00801e-02       5.16155e-01      
 2.07000e-01       9.20257e-10       2.87854e-11       1.41251e-14       6.92225e-13       5.16155e-01       4.00905e-02       5.16155e-01      
 2.16000e-01       1.22237e-09       3.83642e-11       1.42623e-14       9.22554e-13       5.16155e-01       4.01043e-02       5.16155e-01      
 2.25000e-01       1.62090e-09       5.10766e-11       1.44330e-14       1.22808e-12       5.16155e-01       4.01227e-02       5.16155e-01      
 2.34000e-01       2.14512e-09       6.79166e-11       1.46416e-14       1.63255e-12       5.16155e-01       4.01469e-02       5.16155e-01      
 2.43000e-01       2.83243e-09       9.01771e-11       1.48931e-14       2.16676e-12       5.16155e-01       4.01789e-02       5.16155e-01      
 2.52000e-01       3.73016e-09       1.19530e-10       1.51924e-14       2.87040e-12       5.16155e-01       4.02211e-02       5.16155e-01      
 2.61000e-01       4.89770e-09       1.58128e-10       1.55444e-14       3.79429e-12       5.16155e-01       4.02763e-02       5.16155e-01      
 2.70000e-01       6.40872e-09       2.08718e-10       1.59538e-14       5.00292e-12       5.16155e-01       4.03486e-02       5.16155e-01      
 2.79000e-01       8.35355e-09       2.74784e-10       1.64249e-14       6.57740e-12       5.16155e-01       4.04425e-02       5.16155e-01      
 2.88000e-01       1.08414e-08       3.60709e-10       1.69612e-14       8.61860e-12       5.16155e-01       4.05640e-02       5.16155e-01      
 2.97000e-01       1.40024e-08       4.71947e-10       1.75659e-14       1.12504e-11       5.16155e-01       4.07203e-02       5.16155e-01      
 3.06000e-01       1.79889e-08       6.15226e-10       1.82407e-14       1.46227e-11       5.16155e-01       4.09199e-02       5.16155e-01      
 3.15000e-01       2.29761e-08       7.98747e-10       1.89867e-14       1.89140e-11       5.16155e-01       4.11728e-02       5.16155e-01      
 3.24000e-01       2.91617e-08       1.03239e-09       1.98035e-14       2.43332e-11       5.16155e-01       4.14905e-02       5.16155e-01      
 3.33000e-01       3.67638e-08       1.32791e-09       2.06898e-14       3.11196e-11       5.16155e-01       4.18857e-02       5.16155e-01      
 3.42000e-01       4.60180e-08       1.69909e-09       2.16428e-14       3.95415e-11       5.16155e-01       4.23724e-02       5.16155e-01      
 3.51000e-01       5.71724e-08       2.16193e-09       2.26586e-14       4.98928e-11       5.16155e-01       4.29648e-02       5.16155e-01      
 3.60000e-01       7.04819e-08       2.73466e-09       2.37322e-14       6.24872e-11       5.16155e-01       4.36775e-02       5.16155e-01      
 3.69000e-01       8.62017e-08       3.43784e-09       2.48575e-14       7.76516e-11       5.16155e-01       4.45243e-02       5.16155e-01      
 3.78000e-01       1.04582e-07       4.29427e-09       2.60278e-14       9.57174e-11       5.16155e-01       4.55179e-02       5.16155e-01      
 3.87000e-01       1.25861e-07       5.32900e-09       2.72352e-14       1.17013e-10       5.16155e-01       4.66693e-02       5.16155e-01      
 3.96000e-01       1.50270e-07       6.56917e-09       2.84717e-14       1.41858e-10       5.16155e-01       4.79872e-02       5.16155e-01      
 4.05000e-01       1.78028e-07       8.04391e-09       2.97289e-14       1.70555e-10       5.16155e-01       4.94780e-02       5.16155e-01      
 4.14000e-01       2.09355e-07       9.78438e-09       3.09980e-14       2.03394e-10       5.16155e-01       5.11460e-02       5.16155e-01      
 4.23000e-01       2.44478e-07       1.18237e-08       3.22707e-14       2.40647e-10       5.16155e-01       5.29936e-02       5.16155e-01      
 4.32000e-01       2.83644e-07       1.41971e-08       3.35389e-14       2.82579e-10       5.16155e-01       5.50217e-02       5.16155e-01      
 4.41000e-01       3.27127e-07       1.69422e-08       3.47946e-14       3.29444e-10       5.16155e-01       5.72301e-02       5.16155e-01      
 4.50000e-01       3.75235e-07       2.00993e-08       3.60309e-14       3.81499e-10       5.16155e-01       5.96182e-02       5.16155e-01      
 4.59000e-01       4.28310e-07       2.37114e-08       3.72414e-14       4.39008e-10       5.16155e-01       6.21851e-02       5.16155e-01      
 4.68000e-01       4.86720e-07       2.78248e-08       3.84203e-14       5.02240e-10       5.16155e-01       6.49303e-02       5.16155e-01      
 4.77000e-01       5.50855e-07       3.24895e-08       3.95630e-14       5.71480e-10       5.16155e-01       6.78532e-02       5.16155e-01      
 4.86000e-01       6.21106e-07       3.77586e-08       4.06654e-14       6.47022e-10       5.16155e-01       7.09536e-02       5.16155e-01      
 4.95000e-01       6.97855e-07       4.36889e-08       4.17246e-14       7.29172e-10       5.16155e-01       7.42314e-02       5.16155e-01      
 5.04000e-01       7.81461e-07       5.03406e-08       4.27382e-14       8.18245e-10       5.16155e-01       7.76866e-02       5.16155e-01      
 5.13000e-01       8.72237e-07       5.77767e-08       4.37048e-14       9.14557e-10       5.16155e-01       8.13192e-02       5.16155e-01      
 5.22000e-01       9.70448e-07       6.60631e-08       4.46235e-14       1.01843e-09       5.16155e-01       8.51286e-02       5.16155e-01      
 5.31000e-01       1.07629e-06       7.52677e-08       4.54940e-14       1.13017e-09       5.16155e-01       8.91142e-02       5.16155e-01      
 5.40000e-01       1.18989e-06       8.54596e-08       4.63168e-14       1.25010e-09       5.16155e-01       9.32746e-02       5.16155e-01      
 5.49000e-01       1.31130e-06       9.67092e-08       4.70926e-14       1.37850e-09       5.16155e-01       9.76079e-02       5.16155e-01      
 5.58000e-01       1.44050e-06       1.09086e-07       4.78225e-14       1.51565e-09       5.16155e-01       1.02112e-01       5.16155e-01      
 5.67000e-01       1.57737e-06       1.22661e-07       4.85080e-14       1.66182e-09       5.16155e-01       1.06782e-01       5.16155e-01      
 5.76000e-01       1.72174e-06       1.37502e-07       4.91508e-14       1.81726e-09       5.16155e-01       1.11617e-01       5.16155e-01      
 5.85000e-01       1.87336e-06       1.53674e-07       4.97527e-14       1.98219e-09       5.16155e-01       1.16610e-01       5.16155e-01      
 5.94000e-01       2.03194e-06       1.71243e-07       5.03158e-14       2.15682e-09       5.16155e-01       1.21756e-01       5.16155e-01      
 6.03000e-01       2.19713e-06       1.90269e-07       5.08420e-14       2.34136e-09       5.16155e-01       1.27051e-01       5.16155e-01      
 6.12000e-01       2.36852e-06       2.10810e-07       5.13335e-14       2.53598e-09       5.16155e-01       1.32489e-01       5.16155e-01      
 6.21000e-01       2.54571e-06       2.32920e-07       5.17923e-14       2.74085e-09       5.16155e-01       1.38063e-01       5.16155e-01      
 6.30000e-01       2.72824e-06       2.56649e-07       5.22204e-14       2.95614e-09       5.16155e-01       1.43766e-01       5.16155e-01      
 6.39000e-01       2.91568e-06       2.82043e-07       5.26199e-14       3.18199e-09       5.16155e-01       1.49594e-01       5.16155e-01      
 6.48000e-01       3.10756e-06       3.09144e-07       5.29928e-14       3.41857e-09       5.16155e-01       1.55538e-01       5.16155e-01      
 6.57000e-01       3.30344e-06       3.37991e-07       5.33407e-14       3.66602e-09       5.16155e-01       1.61592e-01       5.16155e-01      
 6.66000e-01       3.50290e-06       3.68617e-07       5.36656e-14       3.92451e-09       5.16155e-01       1.67751e-01       5.16155e-01      
 6.75000e-01       3.70550e-06       4.01052e-07       5.39691e-14       4.19419e-09       5.16155e-01       1.74007e-01       5.16155e-01      
 6.84000e-01       3.91085e-06       4.35324e-07       5.42527e-14       4.47523e-09       5.16155e-01       1.80355e-01       5.16155e-01      
 6.93000e-01       4.11858e-06       4.71455e-07       5.45180e-14       4.76783e-09       5.16155e-01       1.86790e-01       5.16155e-01      
 7.02000e-01       4.32834e-06       5.09464e-07       5.47663e-14       5.07217e-09       5.16155e-01       1.93304e-01       5.16155e-01      
 7.11000e-01       4.53981e-06       5.49370e-07       5.49989e-14       5.38849e-09       5.16155e-01       1.99894e-01       5.16155e-01      
 7.20000e-01       4.75270e-06       5.91185e-07       5.52171e-14       5.71701e-09       5.16155e-01       2.06554e-01       5.16155e-01      
 7.29000e-01       4.96674e-06       6.34922e-07       5.54219e-14       6.05799e-09       5.16155e-01       2.13279e-01       5.16155e-01      
 7.38000e-01       5.18168e-06       6.80589e-07       5.56145e-14       6.41172e-09       5.16155e-01       2.20065e-01       5.16155e-01      
 7.47000e-01       5.39730e-06       7.28194e-07       5.57956e-14       6.77851e-09       5.16155e-01       2.26909e-01       5.16155e-01      
 7.56000e-01       5.61341e-06       7.77742e-07       5.59663e-14       7.15869e-09       5.16155e-01       2.33805e-01       5.16155e-01      
 7.65000e-01       5.82982e-06       8.29237e-07       5.61274e-14       7.55265e-09       5.16155e-01       2.40752e-01       5.16155e-01      
 7.74000e-01       6.04640e-06       8.82679e-07       5.62795e-14       7.96078e-09       5.16155e-01       2.47745e-01       5.16155e-01      
 7.83000e-01       6.26298e-06       9.38072e-07       5.64235e-14       8.38353e-09       5.16155e-01       2.54781e-01       5.16155e-01      
 7.92000e-01       6.47946e-06       9.95413e-07       5.65598e-14       8.82138e-09       5.16155e-01       2.61858e-01       5.16155e-01      
 8.01000e-01       6.69572e-06       1.05470e-06       5.66892e-14       9.27484e-09       5.16155e-01       2.68973e-01       5.16155e-01      
 8.10000e-01       6.91166e-06       1.11593e-06       5.68120e-14       9.74449e-09       5.16155e-01       2.76123e-01       5.16155e-01      
 8.19000e-01       7.12719e-06       1.17911e-06       5.69290e-14       1.02309e-08       5.16155e-01       2.83308e-01       5.16155e-01      
 8.28000e-01       7.34224e-06       1.24422e-06       5.70404e-14       1.07348e-08       5.16155e-01       2.90524e-01       5.16155e-01      
 8.37000e-01       7.55675e-06       1.31127e-06       5.71466e-14       1.12569e-08       5.16155e-01       2.97771e-01       5.16155e-01      
 8.46000e-01       7.77064e-06       1.38024e-06       5.72482e-14       1.17980e-08       5.16155e-01       3.05045e-01       5.16155e-01      
 8.55000e-01       7.98386e-06       1.45114e-06       5.73454e-14       1.23588e-08       5.16155e-01       3.12347e-01       5.16155e-01      
 8.64000e-01       8.19637e-06       1.52395e-06       5.74385e-14       1.29403e-08       5.16155e-01       3.19675e-01       5.16155e-01      
 8.73000e-01       8.40811e-06       1.59867e-06       5.75279e-14       1.35435e-08       5.16155e-01       3.27027e-01       5.16155e-01      
 8.82000e-01       8.61904e-06       1.67529e-06       5.76137e-14       1.41694e-08       5.16155e-01       3.34402e-01       5.16155e-01      
 8.91000e-01       8.82912e-06       1.75381e-06       5.76964e-14       1.48191e-08       5.16155e-01       3.41800e-01       5.16155e-01      
 9.00000e-01       9.03832e-06       1.83421e-06       5.77760e-14       1.54940e-08       5.16155e-01       3.49219e-01       5.16155e-01      
 9.09000e-01       9.24660e-06       1.91650e-06       5.78528e-14       1.61953e-08       5.16155e-01       3.56659e-01       5.16155e-01      
 9.18000e-01       9.45393e-06       2.00065e-06       5.79270e-14       1.69245e-08       5.16155e-01       3.64119e-01       5.16155e-01      
 9.27000e-01       9.66026e-06       2.08667e-06       5.79988e-14       1.76830e-08       5.16155e-01       3.71599e-01       5.16155e-01      
 9.36000e-01       9.86558e-06       2.17453e-06       5.80683e-14       1.84727e-08       5.16155e-01       3.79097e-01       5.16155e-01      
 9.45000e-01       1.00698e-05       2.26424e-06       5.81357e-14       1.92953e-08       5.16155e-01       3.86614e-01       5.16155e-01      
 9.54000e-01       1.02730e-05       2.35579e-06       5.82011e-14       2.01528e-08       5.16155e-01       3.94148e-01       5.16155e-01      
 9.63000e-01       1.04751e-05       2.44915e-06       5.82647e-14       2.10473e-08       5.16155e-01       4.01700e-01       5.16155e-01      
 9.72000e-01       1.06760e-05       2.54433e-06       5.83266e-14       2.19812e-08       5.16155e-01       4.09269e-01       5.16155e-01      
 9.81000e-01       1.08758e-05       2.64132e-06       5.83870e-14       2.29570e-08       5.16155e-01       4.16855e-01       5.16155e-01      
 9.90000e-01       1.10744e-05       2.74010e-06       5.84458e-14       2.39774e-08       5.16155e-01       4.24457e-01       5.16155e-01      
 9.99000e-01       1.12717e-05       2.84065e-06       5.85033e-14       2.50455e-08       5.16155e-01       4.32076e-01       5.16155e-01      
 1.00800e+00       1.14677e-05       2.94298e-06       5.85594e-14       2.61644e-08       5.16155e-01       4.39710e-01       5.16155e-01      
 1.01700e+00       1.16625e-05       3.04707e-06       5.86144e-14       2.73378e-08       5.16155e-01       4.47360e-01       5.16155e-01      
 1.02600e+00       1.18559e-05       3.15290e-06       5.86683e-14       2.85695e-08       5.16155e-01       4.55026e-01       5.16155e-01      
 1.03500e+00       1.20480e-05       3.26047e-06       5.87212e-14       2.98638e-08       5.16155e-01       4.62708e-01       5.16155e-01      
 1.04400e+00       1.22387e-05       3.36976e-06       5.87731e-14       3.12253e-08       5.16155e-01       4.70404e-01       5.16155e-01      
 1.05300e+00       1.24279e-05       3.48076e-06       5.88242e-14       3.26591e-08       5.16155e-01       4.78116e-01       5.16155e-01      
 1.06200e+00       1.26157e-05       3.59346e-06       5.88744e-14       3.41708e-08       5.16155e-01       4.85843e-01       5.16155e-01      
 1.07100e+00       1.28020e-05       3.70784e-06       5.89239e-14       3.57665e-08       5.16155e-01       4.93585e-01       5.16155e-01      
 1.08000e+00       1.29868e-05       3.82389e-06       5.89728e-14       3.74529e-08       5.16155e-01       5.01342e-01       5.16155e-01      
 1.08900e+00       1.31700e-05       3.94160e-06       5.90210e-14       3.92376e-08       5.16155e-01       5.09114e-01       5.16155e-01      
 1.09800e+00       1.33516e-05       4.06095e-06       5.90687e-14       4.11287e-08       5.16155e-01       5.16901e-01       5.16155e-01      
 1.10700e+00       1.35316e-05       4.18192e-06       5.91160e-14       4.31352e-08       5.16155e-01       5.24703e-01       5.16155e-01      
 1.11600e+00       1.37099e-05       4.30451e-06       5.91628e-14       4.52672e-08       5.16155e-01       5.32519e-01       5.16155e-01      
 1.12500e+00       1.38865e-05       4.42870e-06       5.92092e-14       4.75357e-08       5.16155e-01       5.40351e-01       5.16155e-01      
 1.13400e+00       1.40613e-05       4.55446e-06       5.92554e-14       4.99530e-08       5.16155e-01       5.48197e-01       5.16155e-01      
 1.14300e+00       1.42344e-05       4.68179e-06       5.93013e-14       5.25328e-08       5.16155e-01       5.56058e-01       5.16155e-01      
 1.15200e+00       1.44056e-05       4.81068e-06       5.93470e-14       5.52901e-08       5.16155e-01       5.63934e-01       5.16155e-01      
 1.16100e+00       1.45750e-05       4.94109e-06       5.93926e-14       5.82419e-08       5.16155e-01       5.71824e-01       5.16155e-01      
 1.17000e+00       1.47424e-05       5.07302e-06       5.94382e-14       6.14068e-08       5.16155e-01       5.79730e-01       5.16155e-01      
 1.17900e+00       1.49079e-05       5.20645e-06       5.94837e-14       6.48059e-08       5.16155e-01       5.87650e-01       5.16155e-01      
 1.18800e+00       1.50714e-05       5.34135e-06       5.95293e-14       6.84626e-08       5.16155e-01       5.95585e-01       5.16155e-01      
 1.19700e+00       1.52328e-05       5.47773e-06       5.95750e-14       7.24030e-08       5.16155e-01       6.03535e-01       5.16155e-01      
 1.20600e+00       1.53921e-05       5.61554e-06       5.96209e-14       7.66565e-08       5.16155e-01       6.11500e-01       5.16155e-01      
 1.21500e+00       1.55492e-05       5.75478e-06       5.96670e-14       8.12559e-08       5.16155e-01       6.19480e-01       5.16155e-01      
