
dc (V)            getData("M0:gm    getData("M0:id    getData("M0:cg    getData("M0:gd    getData("M0:vt    getData("M0:vd    getData("M0:vt

 0.00000e+00       1.57724e-12       6.98421e-14       1.02360e-14       1.49787e-15       5.17884e-01       4.02592e-02       5.17884e-01      
 9.00000e-03       2.11460e-12       8.63375e-14       1.01897e-14       2.00836e-15       5.17884e-01       4.02592e-02       5.17884e-01      
 1.80000e-02       2.83490e-12       1.08452e-13       1.01449e-14       2.69276e-15       5.17884e-01       4.02592e-02       5.17884e-01      
 2.70000e-02       3.80038e-12       1.38099e-13       1.01017e-14       3.61026e-15       5.17884e-01       4.02592e-02       5.17884e-01      
 3.60000e-02       5.09438e-12       1.77842e-13       1.00601e-14       4.84020e-15       5.17884e-01       4.02593e-02       5.17884e-01      
 4.50000e-02       6.82852e-12       2.31115e-13       1.00201e-14       6.48885e-15       5.17884e-01       4.02593e-02       5.17884e-01      
 5.40000e-02       9.15225e-12       3.02519e-13       9.98201e-15       8.69863e-15       5.17884e-01       4.02594e-02       5.17884e-01      
 6.30000e-02       1.22656e-11       3.98217e-13       9.94576e-15       1.16602e-14       5.17884e-01       4.02595e-02       5.17884e-01      
 7.20000e-02       1.64363e-11       5.26463e-13       9.91156e-15       1.56291e-14       5.17884e-01       4.02596e-02       5.17884e-01      
 8.10000e-02       2.20225e-11       6.98306e-13       9.87958e-15       2.09471e-14       5.17884e-01       4.02598e-02       5.17884e-01      
 9.00000e-02       2.95028e-11       9.28534e-13       9.85007e-15       2.80720e-14       5.17884e-01       4.02600e-02       5.17884e-01      
 9.90000e-02       3.95171e-11       1.23694e-12       9.82333e-15       3.76160e-14       5.17884e-01       4.02603e-02       5.17884e-01      
 1.08000e-01       5.29198e-11       1.64998e-12       9.79972e-15       5.03981e-14       5.17884e-01       4.02608e-02       5.17884e-01      
 1.17000e-01       7.08514e-11       2.20304e-12       9.77969e-15       6.75131e-14       5.17884e-01       4.02613e-02       5.17884e-01      
 1.26000e-01       9.48324e-11       2.94340e-12       9.76379e-15       9.04237e-14       5.17884e-01       4.02621e-02       5.17884e-01      
 1.35000e-01       1.26888e-10       3.93418e-12       9.75269e-15       1.21083e-13       5.17884e-01       4.02631e-02       5.17884e-01      
 1.44000e-01       1.69713e-10       5.25961e-12       9.74720e-15       1.62096e-13       5.17884e-01       4.02644e-02       5.17884e-01      
 1.53000e-01       2.26888e-10       7.03196e-12       9.74828e-15       2.16936e-13       5.17884e-01       4.02662e-02       5.17884e-01      
 1.62000e-01       3.03140e-10       9.40066e-12       9.75654e-15       2.90223e-13       5.17884e-01       4.02685e-02       5.17884e-01      
 1.71000e-01       4.04755e-10       1.25644e-11       9.77389e-15       3.88100e-13       5.17884e-01       4.02717e-02       5.17884e-01      
 1.80000e-01       5.40020e-10       1.67869e-11       9.80195e-15       5.18720e-13       5.17884e-01       4.02759e-02       5.17884e-01      
 1.89000e-01       7.19845e-10       2.24181e-11       9.84256e-15       6.92887e-13       5.17884e-01       4.02816e-02       5.17884e-01      
 1.98000e-01       9.58549e-10       2.99203e-11       9.89785e-15       9.24881e-13       5.17884e-01       4.02891e-02       5.17884e-01      
 2.07000e-01       1.27485e-09       3.99042e-11       9.97024e-15       1.23353e-12       5.17884e-01       4.02991e-02       5.17884e-01      
 2.16000e-01       1.69312e-09       5.31729e-11       1.00624e-14       1.64359e-12       5.17884e-01       4.03124e-02       5.17884e-01      
 2.25000e-01       2.24490e-09       7.07800e-11       1.01773e-14       2.18747e-12       5.17884e-01       4.03300e-02       5.17884e-01      
 2.34000e-01       2.97080e-09       9.41023e-11       1.03181e-14       2.90744e-12       5.17884e-01       4.03533e-02       5.17884e-01      
 2.43000e-01       3.92270e-09       1.24931e-10       1.04882e-14       3.85837e-12       5.17884e-01       4.03841e-02       5.17884e-01      
 2.52000e-01       5.16638e-09       1.65585e-10       1.06910e-14       5.11101e-12       5.17884e-01       4.04246e-02       5.17884e-01      
 2.61000e-01       6.78448e-09       2.19047e-10       1.09298e-14       6.75602e-12       5.17884e-01       4.04777e-02       5.17884e-01      
 2.70000e-01       8.87968e-09       2.89134e-10       1.12081e-14       8.90861e-12       5.17884e-01       4.05472e-02       5.17884e-01      
 2.79000e-01       1.15781e-08       3.80688e-10       1.15287e-14       1.17138e-11       5.17884e-01       4.06376e-02       5.17884e-01      
 2.88000e-01       1.50326e-08       4.99806e-10       1.18944e-14       1.53524e-11       5.17884e-01       4.07546e-02       5.17884e-01      
 2.97000e-01       1.94257e-08       6.54088e-10       1.23073e-14       2.00466e-11       5.17884e-01       4.09052e-02       5.17884e-01      
 3.06000e-01       2.49716e-08       8.52923e-10       1.27688e-14       2.60662e-11       5.17884e-01       4.10977e-02       5.17884e-01      
 3.15000e-01       3.19177e-08       1.10777e-09       1.32797e-14       3.37332e-11       5.17884e-01       4.13419e-02       5.17884e-01      
 3.24000e-01       4.05436e-08       1.43248e-09       1.38401e-14       4.34252e-11       5.17884e-01       4.16490e-02       5.17884e-01      
 3.33000e-01       5.11595e-08       1.84353e-09       1.44489e-14       5.55765e-11       5.17884e-01       4.20318e-02       5.17884e-01      
 3.42000e-01       6.41011e-08       2.36032e-09       1.51046e-14       7.06754e-11       5.17884e-01       4.25038e-02       5.17884e-01      
 3.51000e-01       7.97239e-08       3.00539e-09       1.58045e-14       8.92589e-11       5.17884e-01       4.30794e-02       5.17884e-01      
 3.60000e-01       9.83942e-08       3.80450e-09       1.65453e-14       1.11902e-10       5.17884e-01       4.37733e-02       5.17884e-01      
 3.69000e-01       1.20481e-07       4.78673e-09       1.73230e-14       1.39206e-10       5.17884e-01       4.45995e-02       5.17884e-01      
 3.78000e-01       1.46345e-07       5.98448e-09       1.81328e-14       1.71782e-10       5.17884e-01       4.55710e-02       5.17884e-01      
 3.87000e-01       1.76336e-07       7.43333e-09       1.89695e-14       2.10235e-10       5.17884e-01       4.66991e-02       5.17884e-01      
 3.96000e-01       2.10784e-07       9.17190e-09       1.98275e-14       2.55156e-10       5.17884e-01       4.79930e-02       5.17884e-01      
 4.05000e-01       2.50008e-07       1.12418e-08       2.07010e-14       3.07103e-10       5.17884e-01       4.94596e-02       5.17884e-01      
 4.14000e-01       2.94321e-07       1.36873e-08       2.15840e-14       3.66605e-10       5.17884e-01       5.11037e-02       5.17884e-01      
 4.23000e-01       3.44045e-07       1.65558e-08       2.24706e-14       4.34159e-10       5.17884e-01       5.29278e-02       5.17884e-01      
 4.32000e-01       3.99526e-07       1.98974e-08       2.33551e-14       5.10237e-10       5.17884e-01       5.49331e-02       5.17884e-01      
 4.41000e-01       4.61148e-07       2.37657e-08       2.42321e-14       5.95295e-10       5.17884e-01       5.71196e-02       5.17884e-01      
 4.50000e-01       5.29341e-07       2.82178e-08       2.50964e-14       6.89783e-10       5.17884e-01       5.94867e-02       5.17884e-01      
 4.59000e-01       6.04583e-07       3.33149e-08       2.59436e-14       7.94158e-10       5.17884e-01       6.20335e-02       5.17884e-01      
 4.68000e-01       6.87396e-07       3.91230e-08       2.67697e-14       9.08890e-10       5.17884e-01       6.47593e-02       5.17884e-01      
 4.77000e-01       7.78329e-07       4.57124e-08       2.75711e-14       1.03447e-09       5.17884e-01       6.76635e-02       5.17884e-01      
 4.86000e-01       8.77943e-07       5.31589e-08       2.83451e-14       1.17140e-09       5.17884e-01       7.07458e-02       5.17884e-01      
 4.95000e-01       9.86789e-07       6.15431e-08       2.90893e-14       1.32021e-09       5.17884e-01       7.40060e-02       5.17884e-01      
 5.04000e-01       1.10538e-06       7.09504e-08       2.98022e-14       1.48144e-09       5.17884e-01       7.74441e-02       5.17884e-01      
 5.13000e-01       1.23419e-06       8.14706e-08       3.04825e-14       1.65564e-09       5.17884e-01       8.10600e-02       5.17884e-01      
 5.22000e-01       1.37360e-06       9.31976e-08       3.11296e-14       1.84337e-09       5.17884e-01       8.48532e-02       5.17884e-01      
 5.31000e-01       1.52390e-06       1.06228e-07       3.17432e-14       2.04515e-09       5.17884e-01       8.88232e-02       5.17884e-01      
 5.40000e-01       1.68531e-06       1.20661e-07       3.23235e-14       2.26154e-09       5.17884e-01       9.29685e-02       5.17884e-01      
 5.49000e-01       1.85790e-06       1.36597e-07       3.28710e-14       2.49303e-09       5.17884e-01       9.72875e-02       5.17884e-01      
 5.58000e-01       2.04166e-06       1.54137e-07       3.33864e-14       2.74011e-09       5.17884e-01       1.01778e-01       5.17884e-01      
 5.67000e-01       2.23646e-06       1.73380e-07       3.38706e-14       3.00324e-09       5.17884e-01       1.06436e-01       5.17884e-01      
 5.76000e-01       2.44204e-06       1.94426e-07       3.43249e-14       3.28285e-09       5.17884e-01       1.11258e-01       5.17884e-01      
 5.85000e-01       2.65809e-06       2.17368e-07       3.47505e-14       3.57932e-09       5.17884e-01       1.16240e-01       5.17884e-01      
 5.94000e-01       2.88417e-06       2.42301e-07       3.51487e-14       3.89302e-09       5.17884e-01       1.21378e-01       5.17884e-01      
 6.03000e-01       3.11980e-06       2.69312e-07       3.55210e-14       4.22430e-09       5.17884e-01       1.26664e-01       5.17884e-01      
 6.12000e-01       3.36441e-06       2.98485e-07       3.58688e-14       4.57345e-09       5.17884e-01       1.32095e-01       5.17884e-01      
 6.21000e-01       3.61741e-06       3.29897e-07       3.61936e-14       4.94078e-09       5.17884e-01       1.37663e-01       5.17884e-01      
 6.30000e-01       3.87817e-06       3.63621e-07       3.64967e-14       5.32655e-09       5.17884e-01       1.43362e-01       5.17884e-01      
 6.39000e-01       4.14604e-06       3.99725e-07       3.67796e-14       5.73103e-09       5.17884e-01       1.49185e-01       5.17884e-01      
 6.48000e-01       4.42037e-06       4.38269e-07       3.70436e-14       6.15447e-09       5.17884e-01       1.55127e-01       5.17884e-01      
 6.57000e-01       4.70050e-06       4.79309e-07       3.72900e-14       6.59714e-09       5.17884e-01       1.61181e-01       5.17884e-01      
 6.66000e-01       4.98583e-06       5.22894e-07       3.75202e-14       7.05929e-09       5.17884e-01       1.67339e-01       5.17884e-01      
 6.75000e-01       5.27572e-06       5.69068e-07       3.77351e-14       7.54119e-09       5.17884e-01       1.73597e-01       5.17884e-01      
 6.84000e-01       5.56962e-06       6.17869e-07       3.79360e-14       8.04313e-09       5.17884e-01       1.79947e-01       5.17884e-01      
 6.93000e-01       5.86697e-06       6.69331e-07       3.81239e-14       8.56542e-09       5.17884e-01       1.86384e-01       5.17884e-01      
 7.02000e-01       6.16727e-06       7.23483e-07       3.82998e-14       9.10838e-09       5.17884e-01       1.92902e-01       5.17884e-01      
 7.11000e-01       6.47005e-06       7.80350e-07       3.84646e-14       9.67238e-09       5.17884e-01       1.99497e-01       5.17884e-01      
 7.20000e-01       6.77487e-06       8.39950e-07       3.86192e-14       1.02578e-08       5.17884e-01       2.06162e-01       5.17884e-01      
 7.29000e-01       7.08135e-06       9.02302e-07       3.87642e-14       1.08651e-08       5.17884e-01       2.12893e-01       5.17884e-01      
 7.38000e-01       7.38912e-06       9.67419e-07       3.89006e-14       1.14947e-08       5.17884e-01       2.19685e-01       5.17884e-01      
 7.47000e-01       7.69786e-06       1.03531e-06       3.90289e-14       1.21471e-08       5.17884e-01       2.26536e-01       5.17884e-01      
 7.56000e-01       8.00728e-06       1.10598e-06       3.91497e-14       1.28229e-08       5.17884e-01       2.33439e-01       5.17884e-01      
 7.65000e-01       8.31713e-06       1.17944e-06       3.92638e-14       1.35227e-08       5.17884e-01       2.40393e-01       5.17884e-01      
 7.74000e-01       8.62717e-06       1.25569e-06       3.93715e-14       1.42472e-08       5.17884e-01       2.47393e-01       5.17884e-01      
 7.83000e-01       8.93720e-06       1.33473e-06       3.94733e-14       1.49970e-08       5.17884e-01       2.54437e-01       5.17884e-01      
 7.92000e-01       9.24704e-06       1.41656e-06       3.95698e-14       1.57730e-08       5.17884e-01       2.61522e-01       5.17884e-01      
 8.01000e-01       9.55651e-06       1.50118e-06       3.96614e-14       1.65761e-08       5.17884e-01       2.68645e-01       5.17884e-01      
 8.10000e-01       9.86549e-06       1.58858e-06       3.97483e-14       1.74071e-08       5.17884e-01       2.75803e-01       5.17884e-01      
 8.19000e-01       1.01738e-05       1.67875e-06       3.98310e-14       1.82670e-08       5.17884e-01       2.82995e-01       5.17884e-01      
 8.28000e-01       1.04814e-05       1.77170e-06       3.99098e-14       1.91569e-08       5.17884e-01       2.90219e-01       5.17884e-01      
 8.37000e-01       1.07882e-05       1.86742e-06       3.99850e-14       2.00781e-08       5.17884e-01       2.97473e-01       5.17884e-01      
 8.46000e-01       1.10941e-05       1.96589e-06       4.00568e-14       2.10316e-08       5.17884e-01       3.04755e-01       5.17884e-01      
 8.55000e-01       1.13989e-05       2.06711e-06       4.01255e-14       2.20190e-08       5.17884e-01       3.12064e-01       5.17884e-01      
 8.64000e-01       1.17026e-05       2.17106e-06       4.01913e-14       2.30416e-08       5.17884e-01       3.19398e-01       5.17884e-01      
 8.73000e-01       1.20052e-05       2.27775e-06       4.02544e-14       2.41010e-08       5.17884e-01       3.26756e-01       5.17884e-01      
 8.82000e-01       1.23065e-05       2.38715e-06       4.03151e-14       2.51989e-08       5.17884e-01       3.34137e-01       5.17884e-01      
 8.91000e-01       1.26066e-05       2.49926e-06       4.03735e-14       2.63371e-08       5.17884e-01       3.41540e-01       5.17884e-01      
 9.00000e-01       1.29054e-05       2.61407e-06       4.04297e-14       2.75177e-08       5.17884e-01       3.48965e-01       5.17884e-01      
 9.09000e-01       1.32028e-05       2.73156e-06       4.04839e-14       2.87426e-08       5.17884e-01       3.56410e-01       5.17884e-01      
 9.18000e-01       1.34987e-05       2.85172e-06       4.05363e-14       3.00143e-08       5.17884e-01       3.63874e-01       5.17884e-01      
 9.27000e-01       1.37932e-05       2.97453e-06       4.05870e-14       3.13351e-08       5.17884e-01       3.71358e-01       5.17884e-01      
 9.36000e-01       1.40862e-05       3.09999e-06       4.06360e-14       3.27078e-08       5.17884e-01       3.78859e-01       5.17884e-01      
 9.45000e-01       1.43776e-05       3.22808e-06       4.06836e-14       3.41352e-08       5.17884e-01       3.86379e-01       5.17884e-01      
 9.54000e-01       1.46674e-05       3.35878e-06       4.07297e-14       3.56204e-08       5.17884e-01       3.93916e-01       5.17884e-01      
 9.63000e-01       1.49555e-05       3.49208e-06       4.07746e-14       3.71668e-08       5.17884e-01       4.01470e-01       5.17884e-01      
 9.72000e-01       1.52419e-05       3.62797e-06       4.08182e-14       3.87780e-08       5.17884e-01       4.09040e-01       5.17884e-01      
 9.81000e-01       1.55266e-05       3.76643e-06       4.08608e-14       4.04580e-08       5.17884e-01       4.16627e-01       5.17884e-01      
 9.90000e-01       1.58096e-05       3.90745e-06       4.09022e-14       4.22110e-08       5.17884e-01       4.24230e-01       5.17884e-01      
 9.99000e-01       1.60907e-05       4.05100e-06       4.09427e-14       4.40417e-08       5.17884e-01       4.31848e-01       5.17884e-01      
 1.00800e+00       1.63699e-05       4.19707e-06       4.09823e-14       4.59551e-08       5.17884e-01       4.39482e-01       5.17884e-01      
 1.01700e+00       1.66472e-05       4.34565e-06       4.10211e-14       4.79568e-08       5.17884e-01       4.47131e-01       5.17884e-01      
 1.02600e+00       1.69226e-05       4.49672e-06       4.10590e-14       5.00526e-08       5.17884e-01       4.54795e-01       5.17884e-01      
 1.03500e+00       1.71959e-05       4.65025e-06       4.10963e-14       5.22492e-08       5.17884e-01       4.62474e-01       5.17884e-01      
 1.04400e+00       1.74672e-05       4.80624e-06       4.11328e-14       5.45537e-08       5.17884e-01       4.70168e-01       5.17884e-01      
 1.05300e+00       1.77364e-05       4.96466e-06       4.11688e-14       5.69737e-08       5.17884e-01       4.77876e-01       5.17884e-01      
 1.06200e+00       1.80035e-05       5.12549e-06       4.12042e-14       5.95179e-08       5.17884e-01       4.85600e-01       5.17884e-01      
 1.07100e+00       1.82684e-05       5.28871e-06       4.12390e-14       6.21956e-08       5.17884e-01       4.93337e-01       5.17884e-01      
 1.08000e+00       1.85310e-05       5.45431e-06       4.12734e-14       6.50169e-08       5.17884e-01       5.01089e-01       5.17884e-01      
 1.08900e+00       1.87914e-05       5.62226e-06       4.13074e-14       6.79932e-08       5.17884e-01       5.08856e-01       5.17884e-01      
 1.09800e+00       1.90494e-05       5.79255e-06       4.13410e-14       7.11367e-08       5.17884e-01       5.16636e-01       5.17884e-01      
 1.10700e+00       1.93050e-05       5.96515e-06       4.13743e-14       7.44610e-08       5.17884e-01       5.24431e-01       5.17884e-01      
 1.11600e+00       1.95582e-05       6.14003e-06       4.14072e-14       7.79813e-08       5.17884e-01       5.32241e-01       5.17884e-01      
 1.12500e+00       1.98089e-05       6.31719e-06       4.14400e-14       8.17139e-08       5.17884e-01       5.40064e-01       5.17884e-01      
 1.13400e+00       2.00570e-05       6.49658e-06       4.14725e-14       8.56772e-08       5.17884e-01       5.47902e-01       5.17884e-01      
 1.14300e+00       2.03025e-05       6.67820e-06       4.15048e-14       8.98915e-08       5.17884e-01       5.55754e-01       5.17884e-01      
 1.15200e+00       2.05454e-05       6.86202e-06       4.15371e-14       9.43793e-08       5.17884e-01       5.63621e-01       5.17884e-01      
 1.16100e+00       2.07855e-05       7.04801e-06       4.15692e-14       9.91654e-08       5.17884e-01       5.71501e-01       5.17884e-01      
 1.17000e+00       2.10228e-05       7.23615e-06       4.16013e-14       1.04278e-07       5.17884e-01       5.79396e-01       5.17884e-01      
 1.17900e+00       2.12573e-05       7.42641e-06       4.16334e-14       1.09747e-07       5.17884e-01       5.87306e-01       5.17884e-01      
 1.18800e+00       2.14889e-05       7.61877e-06       4.16656e-14       1.15607e-07       5.17884e-01       5.95229e-01       5.17884e-01      
 1.19700e+00       2.17174e-05       7.81320e-06       4.16979e-14       1.21896e-07       5.17884e-01       6.03167e-01       5.17884e-01      
 1.20600e+00       2.19429e-05       8.00968e-06       4.17303e-14       1.28658e-07       5.17884e-01       6.11120e-01       5.17884e-01      
 1.21500e+00       2.21653e-05       8.20817e-06       4.17629e-14       1.35941e-07       5.17884e-01       6.19087e-01       5.17884e-01      
