
dc (V)            getData("M0:gm    getData("M0:id    getData("M0:cg    getData("M0:gd    getData("M0:vt    getData("M0:vd    getData("M0:vt

 0.00000e+00       1.84162e-12       7.55525e-14       1.94119e-15       2.65926e-15       4.89904e-01       4.00217e-02       4.89904e-01      
 9.00000e-03       2.46769e-12       9.39256e-14       1.93351e-15       3.56371e-15       4.89904e-01       4.00217e-02       4.89904e-01      
 1.80000e-02       3.30641e-12       1.18943e-13       1.92615e-15       4.77561e-15       4.89904e-01       4.00218e-02       4.89904e-01      
 2.70000e-02       4.42991e-12       1.52818e-13       1.91913e-15       6.39934e-15       4.89904e-01       4.00218e-02       4.89904e-01      
 3.60000e-02       5.93471e-12       1.98522e-13       1.91246e-15       8.57472e-15       4.89904e-01       4.00219e-02       4.89904e-01      
 4.50000e-02       7.94998e-12       2.60032e-13       1.90618e-15       1.14889e-14       4.89904e-01       4.00220e-02       4.89904e-01      
 5.40000e-02       1.06485e-11       3.42678e-13       1.90032e-15       1.53925e-14       4.89904e-01       4.00221e-02       4.89904e-01      
 6.30000e-02       1.42612e-11       4.53596e-13       1.89492e-15       2.06207e-14       4.89904e-01       4.00223e-02       4.89904e-01      
 7.20000e-02       1.90970e-11       6.02333e-13       1.89006e-15       2.76221e-14       4.89904e-01       4.00225e-02       4.89904e-01      
 8.10000e-02       2.55683e-11       8.01665e-13       1.88579e-15       3.69967e-14       4.89904e-01       4.00228e-02       4.89904e-01      
 9.00000e-02       3.42259e-11       1.06867e-12       1.88220e-15       4.95466e-14       4.89904e-01       4.00233e-02       4.89904e-01      
 9.90000e-02       4.58048e-11       1.42619e-12       1.87941e-15       6.63438e-14       4.89904e-01       4.00238e-02       4.89904e-01      
 1.08000e-01       6.12847e-11       1.90471e-12       1.87753e-15       8.88200e-14       4.89904e-01       4.00246e-02       4.89904e-01      
 1.17000e-01       8.19706e-11       2.54495e-12       1.87673e-15       1.18886e-13       4.89904e-01       4.00255e-02       4.89904e-01      
 1.26000e-01       1.09596e-10       3.40122e-12       1.87714e-15       1.59092e-13       4.89904e-01       4.00269e-02       4.89904e-01      
 1.35000e-01       1.46461e-10       4.54586e-12       1.87899e-15       2.12830e-13       4.89904e-01       4.00287e-02       4.89904e-01      
 1.44000e-01       1.95627e-10       6.07520e-12       1.88257e-15       2.84620e-13       4.89904e-01       4.00310e-02       4.89904e-01      
 1.53000e-01       2.61139e-10       8.11735e-12       1.88821e-15       3.80469e-13       4.89904e-01       4.00342e-02       4.89904e-01      
 1.62000e-01       3.48345e-10       1.08425e-11       1.89626e-15       5.08351e-13       4.89904e-01       4.00384e-02       4.89904e-01      
 1.71000e-01       4.64292e-10       1.44761e-11       1.90712e-15       6.78835e-13       4.89904e-01       4.00441e-02       4.89904e-01      
 1.80000e-01       6.18239e-10       1.93169e-11       1.92125e-15       9.05895e-13       4.89904e-01       4.00516e-02       4.89904e-01      
 1.89000e-01       8.22313e-10       2.57591e-11       1.93917e-15       1.20797e-12       4.89904e-01       4.00616e-02       4.89904e-01      
 1.98000e-01       1.09233e-09       3.43222e-11       1.96143e-15       1.60930e-12       4.89904e-01       4.00748e-02       4.89904e-01      
 2.07000e-01       1.44883e-09       4.56884e-11       1.98863e-15       2.14168e-12       4.89904e-01       4.00924e-02       4.89904e-01      
 2.16000e-01       1.91833e-09       6.07507e-11       2.02139e-15       2.84663e-12       4.89904e-01       4.01157e-02       4.89904e-01      
 2.25000e-01       2.53485e-09       8.06734e-11       2.06037e-15       3.77807e-12       4.89904e-01       4.01465e-02       4.89904e-01      
 2.34000e-01       3.34177e-09       1.06968e-10       2.10620e-15       5.00570e-12       4.89904e-01       4.01870e-02       4.89904e-01      
 2.43000e-01       4.39389e-09       1.41586e-10       2.15948e-15       6.61898e-12       4.89904e-01       4.02403e-02       4.89904e-01      
 2.52000e-01       5.75981e-09       1.87032e-10       2.22078e-15       8.73187e-12       4.89904e-01       4.03100e-02       4.89904e-01      
 2.61000e-01       7.52457e-09       2.46502e-10       2.29057e-15       1.14882e-11       4.89904e-01       4.04009e-02       4.89904e-01      
 2.70000e-01       9.79225e-09       3.24039e-10       2.36923e-15       1.50675e-11       4.89904e-01       4.05189e-02       4.89904e-01      
 2.79000e-01       1.26887e-08       4.24722e-10       2.45704e-15       1.96913e-11       4.89904e-01       4.06711e-02       4.89904e-01      
 2.88000e-01       1.63638e-08       5.54868e-10       2.55410e-15       2.56289e-11       4.89904e-01       4.08664e-02       4.89904e-01      
 2.97000e-01       2.09933e-08       7.22258e-10       2.66040e-15       3.32022e-11       4.89904e-01       4.11150e-02       4.89904e-01      
 3.06000e-01       2.67798e-08       9.36378e-10       2.77575e-15       4.27889e-11       4.89904e-01       4.14291e-02       4.89904e-01      
 3.15000e-01       3.39523e-08       1.20866e-09       2.89982e-15       5.48227e-11       4.89904e-01       4.18223e-02       4.89904e-01      
 3.24000e-01       4.27643e-08       1.55270e-09       3.03210e-15       6.97889e-11       4.89904e-01       4.23099e-02       4.89904e-01      
 3.33000e-01       5.34900e-08       1.98448e-09       3.17195e-15       8.82163e-11       4.89904e-01       4.29080e-02       4.89904e-01      
 3.42000e-01       6.64182e-08       2.52253e-09       3.31860e-15       1.10663e-10       4.89904e-01       4.36333e-02       4.89904e-01      
 3.51000e-01       8.18443e-08       3.18800e-09       3.47115e-15       1.37699e-10       4.89904e-01       4.45023e-02       4.89904e-01      
 3.60000e-01       1.00061e-07       4.00471e-09       3.62863e-15       1.69881e-10       4.89904e-01       4.55305e-02       4.89904e-01      
 3.69000e-01       1.21346e-07       4.99904e-09       3.78996e-15       2.07736e-10       4.89904e-01       4.67316e-02       4.89904e-01      
 3.78000e-01       1.45958e-07       6.19980e-09       3.95407e-15       2.51736e-10       4.89904e-01       4.81172e-02       4.89904e-01      
 3.87000e-01       1.74129e-07       7.63801e-09       4.11982e-15       3.02283e-10       4.89904e-01       4.96957e-02       4.89904e-01      
 3.96000e-01       2.06062e-07       9.34664e-09       4.28613e-15       3.59704e-10       4.89904e-01       5.14729e-02       4.89904e-01      
 4.05000e-01       2.41942e-07       1.13604e-08       4.45193e-15       4.24247e-10       4.89904e-01       5.34516e-02       4.89904e-01      
 4.14000e-01       2.81944e-07       1.37156e-08       4.61620e-15       4.96090e-10       4.89904e-01       5.56323e-02       4.89904e-01      
 4.23000e-01       3.26243e-07       1.64502e-08       4.77801e-15       5.75355e-10       4.89904e-01       5.80137e-02       4.89904e-01      
 4.32000e-01       3.75030e-07       1.96036e-08       4.93652e-15       6.62122e-10       4.89904e-01       6.05931e-02       4.89904e-01      
 4.41000e-01       4.28515e-07       2.32172e-08       5.09098e-15       7.56444e-10       4.89904e-01       6.33674e-02       4.89904e-01      
 4.50000e-01       4.86929e-07       2.73344e-08       5.24078e-15       8.58363e-10       4.89904e-01       6.63329e-02       4.89904e-01      
 4.59000e-01       5.50523e-07       3.20005e-08       5.38537e-15       9.67920e-10       4.89904e-01       6.94863e-02       4.89904e-01      
 4.68000e-01       6.19555e-07       3.72634e-08       5.52437e-15       1.08516e-09       4.89904e-01       7.28245e-02       4.89904e-01      
 4.77000e-01       6.94281e-07       4.31732e-08       5.65744e-15       1.21013e-09       4.89904e-01       7.63447e-02       4.89904e-01      
 4.86000e-01       7.74937e-07       4.97822e-08       5.78440e-15       1.34289e-09       4.89904e-01       8.00444e-02       4.89904e-01      
 4.95000e-01       8.61729e-07       5.71447e-08       5.90511e-15       1.48350e-09       4.89904e-01       8.39210e-02       4.89904e-01      
 5.04000e-01       9.54817e-07       6.53167e-08       6.01955e-15       1.63202e-09       4.89904e-01       8.79723e-02       4.89904e-01      
 5.13000e-01       1.05431e-06       7.43555e-08       6.12775e-15       1.78850e-09       4.89904e-01       9.21956e-02       4.89904e-01      
 5.22000e-01       1.16026e-06       8.43189e-08       6.22980e-15       1.95299e-09       4.89904e-01       9.65884e-02       4.89904e-01      
 5.31000e-01       1.27264e-06       9.52649e-08       6.32584e-15       2.12550e-09       4.89904e-01       1.01147e-01       4.89904e-01      
 5.40000e-01       1.39138e-06       1.07251e-07       6.41606e-15       2.30605e-09       4.89904e-01       1.05869e-01       4.89904e-01      
 5.49000e-01       1.51634e-06       1.20334e-07       6.50068e-15       2.49463e-09       4.89904e-01       1.10750e-01       4.89904e-01      
 5.58000e-01       1.64731e-06       1.34570e-07       6.57994e-15       2.69122e-09       4.89904e-01       1.15784e-01       4.89904e-01      
 5.67000e-01       1.78406e-06       1.50010e-07       6.65408e-15       2.89576e-09       4.89904e-01       1.20968e-01       4.89904e-01      
 5.76000e-01       1.92629e-06       1.66706e-07       6.72338e-15       3.10819e-09       4.89904e-01       1.26297e-01       4.89904e-01      
 5.85000e-01       2.07368e-06       1.84706e-07       6.78811e-15       3.32842e-09       4.89904e-01       1.31764e-01       4.89904e-01      
 5.94000e-01       2.22586e-06       2.04054e-07       6.84853e-15       3.55637e-09       4.89904e-01       1.37364e-01       4.89904e-01      
 6.03000e-01       2.38248e-06       2.24792e-07       6.90491e-15       3.79190e-09       4.89904e-01       1.43090e-01       4.89904e-01      
 6.12000e-01       2.54316e-06       2.46958e-07       6.95751e-15       4.03491e-09       4.89904e-01       1.48937e-01       4.89904e-01      
 6.21000e-01       2.70751e-06       2.70587e-07       7.00659e-15       4.28527e-09       4.89904e-01       1.54899e-01       4.89904e-01      
 6.30000e-01       2.87516e-06       2.95710e-07       7.05238e-15       4.54283e-09       4.89904e-01       1.60969e-01       4.89904e-01      
 6.39000e-01       3.04573e-06       3.22356e-07       7.09512e-15       4.80747e-09       4.89904e-01       1.67141e-01       4.89904e-01      
 6.48000e-01       3.21889e-06       3.50548e-07       7.13503e-15       5.07903e-09       4.89904e-01       1.73409e-01       4.89904e-01      
 6.57000e-01       3.39428e-06       3.80310e-07       7.17231e-15       5.35740e-09       4.89904e-01       1.79768e-01       4.89904e-01      
 6.66000e-01       3.57160e-06       4.11658e-07       7.20716e-15       5.64242e-09       4.89904e-01       1.86212e-01       4.89904e-01      
 6.75000e-01       3.75055e-06       4.44610e-07       7.23976e-15       5.93397e-09       4.89904e-01       1.92736e-01       4.89904e-01      
 6.84000e-01       3.93086e-06       4.79179e-07       7.27029e-15       6.23193e-09       4.89904e-01       1.99334e-01       4.89904e-01      
 6.93000e-01       4.11227e-06       5.15375e-07       7.29889e-15       6.53617e-09       4.89904e-01       2.06002e-01       4.89904e-01      
 7.02000e-01       4.29456e-06       5.53208e-07       7.32573e-15       6.84658e-09       4.89904e-01       2.12735e-01       4.89904e-01      
 7.11000e-01       4.47752e-06       5.92685e-07       7.35092e-15       7.16305e-09       4.89904e-01       2.19529e-01       4.89904e-01      
 7.20000e-01       4.66097e-06       6.33810e-07       7.37461e-15       7.48548e-09       4.89904e-01       2.26380e-01       4.89904e-01      
 7.29000e-01       4.84474e-06       6.76588e-07       7.39691e-15       7.81379e-09       4.89904e-01       2.33285e-01       4.89904e-01      
 7.38000e-01       5.02868e-06       7.21021e-07       7.41791e-15       8.14789e-09       4.89904e-01       2.40240e-01       4.89904e-01      
 7.47000e-01       5.21265e-06       7.67109e-07       7.43773e-15       8.48771e-09       4.89904e-01       2.47241e-01       4.89904e-01      
 7.56000e-01       5.39655e-06       8.14852e-07       7.45646e-15       8.83318e-09       4.89904e-01       2.54286e-01       4.89904e-01      
 7.65000e-01       5.58026e-06       8.64250e-07       7.47417e-15       9.18424e-09       4.89904e-01       2.61372e-01       4.89904e-01      
 7.74000e-01       5.76369e-06       9.15299e-07       7.49095e-15       9.54084e-09       4.89904e-01       2.68497e-01       4.89904e-01      
 7.83000e-01       5.94677e-06       9.67998e-07       7.50686e-15       9.90295e-09       4.89904e-01       2.75659e-01       4.89904e-01      
 7.92000e-01       6.12941e-06       1.02234e-06       7.52197e-15       1.02705e-08       4.89904e-01       2.82855e-01       4.89904e-01      
 8.01000e-01       6.31157e-06       1.07833e-06       7.53634e-15       1.06435e-08       4.89904e-01       2.90083e-01       4.89904e-01      
 8.10000e-01       6.49317e-06       1.13595e-06       7.55003e-15       1.10219e-08       4.89904e-01       2.97342e-01       4.89904e-01      
 8.19000e-01       6.67417e-06       1.19520e-06       7.56308e-15       1.14057e-08       4.89904e-01       3.04630e-01       4.89904e-01      
 8.28000e-01       6.85453e-06       1.25608e-06       7.57554e-15       1.17949e-08       4.89904e-01       3.11946e-01       4.89904e-01      
 8.37000e-01       7.03421e-06       1.31858e-06       7.58745e-15       1.21895e-08       4.89904e-01       3.19289e-01       4.89904e-01      
 8.46000e-01       7.21317e-06       1.38270e-06       7.59885e-15       1.25895e-08       4.89904e-01       3.26657e-01       4.89904e-01      
 8.55000e-01       7.39137e-06       1.44842e-06       7.60978e-15       1.29948e-08       4.89904e-01       3.34049e-01       4.89904e-01      
 8.64000e-01       7.56880e-06       1.51574e-06       7.62027e-15       1.34056e-08       4.89904e-01       3.41464e-01       4.89904e-01      
 8.73000e-01       7.74542e-06       1.58465e-06       7.63034e-15       1.38218e-08       4.89904e-01       3.48902e-01       4.89904e-01      
 8.82000e-01       7.92120e-06       1.65515e-06       7.64003e-15       1.42434e-08       4.89904e-01       3.56362e-01       4.89904e-01      
 8.91000e-01       8.09612e-06       1.72723e-06       7.64937e-15       1.46705e-08       4.89904e-01       3.63842e-01       4.89904e-01      
 9.00000e-01       8.27016e-06       1.80088e-06       7.65836e-15       1.51031e-08       4.89904e-01       3.71343e-01       4.89904e-01      
 9.09000e-01       8.44330e-06       1.87609e-06       7.66704e-15       1.55413e-08       4.89904e-01       3.78864e-01       4.89904e-01      
 9.18000e-01       8.61551e-06       1.95285e-06       7.67543e-15       1.59851e-08       4.89904e-01       3.86404e-01       4.89904e-01      
 9.27000e-01       8.78678e-06       2.03116e-06       7.68354e-15       1.64345e-08       4.89904e-01       3.93963e-01       4.89904e-01      
 9.36000e-01       8.95708e-06       2.11101e-06       7.69138e-15       1.68896e-08       4.89904e-01       4.01540e-01       4.89904e-01      
 9.45000e-01       9.12640e-06       2.19238e-06       7.69899e-15       1.73504e-08       4.89904e-01       4.09136e-01       4.89904e-01      
 9.54000e-01       9.29472e-06       2.27527e-06       7.70636e-15       1.78170e-08       4.89904e-01       4.16750e-01       4.89904e-01      
 9.63000e-01       9.46201e-06       2.35968e-06       7.71351e-15       1.82895e-08       4.89904e-01       4.24381e-01       4.89904e-01      
 9.72000e-01       9.62826e-06       2.44558e-06       7.72046e-15       1.87679e-08       4.89904e-01       4.32030e-01       4.89904e-01      
 9.81000e-01       9.79345e-06       2.53298e-06       7.72721e-15       1.92524e-08       4.89904e-01       4.39695e-01       4.89904e-01      
 9.90000e-01       9.95756e-06       2.62186e-06       7.73378e-15       1.97429e-08       4.89904e-01       4.47378e-01       4.89904e-01      
 9.99000e-01       1.01206e-05       2.71221e-06       7.74017e-15       2.02395e-08       4.89904e-01       4.55078e-01       4.89904e-01      
 1.00800e+00       1.02825e-05       2.80402e-06       7.74640e-15       2.07424e-08       4.89904e-01       4.62794e-01       4.89904e-01      
 1.01700e+00       1.04432e-05       2.89728e-06       7.75247e-15       2.12516e-08       4.89904e-01       4.70527e-01       4.89904e-01      
 1.02600e+00       1.06028e-05       2.99199e-06       7.75839e-15       2.17673e-08       4.89904e-01       4.78277e-01       4.89904e-01      
 1.03500e+00       1.07612e-05       3.08812e-06       7.76417e-15       2.22894e-08       4.89904e-01       4.86043e-01       4.89904e-01      
 1.04400e+00       1.09185e-05       3.18568e-06       7.76981e-15       2.28182e-08       4.89904e-01       4.93825e-01       4.89904e-01      
 1.05300e+00       1.10745e-05       3.28465e-06       7.77532e-15       2.33537e-08       4.89904e-01       5.01624e-01       4.89904e-01      
 1.06200e+00       1.12293e-05       3.38501e-06       7.78071e-15       2.38960e-08       4.89904e-01       5.09439e-01       4.89904e-01      
 1.07100e+00       1.13828e-05       3.48677e-06       7.78597e-15       2.44452e-08       4.89904e-01       5.17271e-01       4.89904e-01      
 1.08000e+00       1.15351e-05       3.58990e-06       7.79113e-15       2.50015e-08       4.89904e-01       5.25119e-01       4.89904e-01      
 1.08900e+00       1.16861e-05       3.69439e-06       7.79617e-15       2.55650e-08       4.89904e-01       5.32984e-01       4.89904e-01      
 1.09800e+00       1.18358e-05       3.80024e-06       7.80111e-15       2.61358e-08       4.89904e-01       5.40865e-01       4.89904e-01      
 1.10700e+00       1.19842e-05       3.90743e-06       7.80595e-15       2.67140e-08       4.89904e-01       5.48762e-01       4.89904e-01      
 1.11600e+00       1.21313e-05       4.01594e-06       7.81070e-15       2.72999e-08       4.89904e-01       5.56676e-01       4.89904e-01      
 1.12500e+00       1.22770e-05       4.12578e-06       7.81535e-15       2.78934e-08       4.89904e-01       5.64606e-01       4.89904e-01      
 1.13400e+00       1.24213e-05       4.23692e-06       7.81991e-15       2.84948e-08       4.89904e-01       5.72553e-01       4.89904e-01      
 1.14300e+00       1.25643e-05       4.34935e-06       7.82439e-15       2.91042e-08       4.89904e-01       5.80516e-01       4.89904e-01      
 1.15200e+00       1.27058e-05       4.46307e-06       7.82879e-15       2.97218e-08       4.89904e-01       5.88496e-01       4.89904e-01      
 1.16100e+00       1.28460e-05       4.57805e-06       7.83310e-15       3.03478e-08       4.89904e-01       5.96493e-01       4.89904e-01      
 1.17000e+00       1.29847e-05       4.69429e-06       7.83734e-15       3.09823e-08       4.89904e-01       6.04507e-01       4.89904e-01      
 1.17900e+00       1.31220e-05       4.81177e-06       7.84150e-15       3.16256e-08       4.89904e-01       6.12538e-01       4.89904e-01      
 1.18800e+00       1.32578e-05       4.93047e-06       7.84559e-15       3.22777e-08       4.89904e-01       6.20585e-01       4.89904e-01      
 1.19700e+00       1.33921e-05       5.05040e-06       7.84962e-15       3.29389e-08       4.89904e-01       6.28650e-01       4.89904e-01      
 1.20600e+00       1.35250e-05       5.17152e-06       7.85357e-15       3.36094e-08       4.89904e-01       6.36732e-01       4.89904e-01      
 1.21500e+00       1.36564e-05       5.29384e-06       7.85747e-15       3.42894e-08       4.89904e-01       6.44831e-01       4.89904e-01      
