
dc (V)            getData("M0:gm    getData("M0:id    getData("M0:cg    getData("M0:gd    getData("M0:vt    getData("M0:vd    getData("M0:vt

 0.00000e+00       1.17573e-11       3.93527e-13       1.42374e-15       5.82969e-14       5.49245e-01       4.56756e-02       5.49245e-01      
 9.00000e-03       1.56236e-11       5.15918e-13       1.41924e-15       7.74726e-14       5.49245e-01       4.56756e-02       5.49245e-01      
 1.80000e-02       2.07606e-11       6.78553e-13       1.41487e-15       1.02954e-13       5.49245e-01       4.56756e-02       5.49245e-01      
 2.70000e-02       2.75858e-11       8.94660e-13       1.41062e-15       1.36812e-13       5.49245e-01       4.56756e-02       5.49245e-01      
 3.60000e-02       3.66534e-11       1.18181e-12       1.40650e-15       1.81801e-13       5.49245e-01       4.56756e-02       5.49245e-01      
 4.50000e-02       4.86991e-11       1.56333e-12       1.40251e-15       2.41577e-13       5.49245e-01       4.56757e-02       5.49245e-01      
 5.40000e-02       6.47001e-11       2.07023e-12       1.39866e-15       3.20995e-13       5.49245e-01       4.56757e-02       5.49245e-01      
 6.30000e-02       8.59531e-11       2.74365e-12       1.39495e-15       4.26504e-13       5.49245e-01       4.56758e-02       5.49245e-01      
 7.20000e-02       1.14179e-10       3.63825e-12       1.39139e-15       5.66665e-13       5.49245e-01       4.56758e-02       5.49245e-01      
 8.10000e-02       1.51661e-10       4.82657e-12       1.38798e-15       7.52844e-13       5.49245e-01       4.56760e-02       5.49245e-01      
 9.00000e-02       2.01427e-10       6.40490e-12       1.38475e-15       1.00013e-12       5.49245e-01       4.56761e-02       5.49245e-01      
 9.90000e-02       2.67493e-10       8.50103e-12       1.38170e-15       1.32854e-12       5.49245e-01       4.56763e-02       5.49245e-01      
 1.08000e-01       3.55179e-10       1.12845e-11       1.37886e-15       1.76462e-12       5.49245e-01       4.56765e-02       5.49245e-01      
 1.17000e-01       4.71536e-10       1.49800e-11       1.37625e-15       2.34361e-12       5.49245e-01       4.56769e-02       5.49245e-01      
 1.26000e-01       6.25894e-10       1.98858e-11       1.37390e-15       3.11220e-12       5.49245e-01       4.56773e-02       5.49245e-01      
 1.35000e-01       8.30602e-10       2.63968e-11       1.37186e-15       4.13226e-12       5.49245e-01       4.56779e-02       5.49245e-01      
 1.44000e-01       1.10198e-09       3.50362e-11       1.37017e-15       5.48574e-12       5.49245e-01       4.56787e-02       5.49245e-01      
 1.53000e-01       1.46160e-09       4.64965e-11       1.36888e-15       7.28113e-12       5.49245e-01       4.56797e-02       5.49245e-01      
 1.62000e-01       1.93783e-09       6.16940e-11       1.36804e-15       9.66190e-12       5.49245e-01       4.56811e-02       5.49245e-01      
 1.71000e-01       2.56808e-09       8.18385e-11       1.36772e-15       1.28175e-11       5.49245e-01       4.56829e-02       5.49245e-01      
 1.80000e-01       3.40163e-09       1.08528e-10       1.36806e-15       1.69981e-11       5.49245e-01       4.56853e-02       5.49245e-01      
 1.89000e-01       4.50315e-09       1.43870e-10       1.36916e-15       2.25337e-11       5.49245e-01       4.56885e-02       5.49245e-01      
 1.98000e-01       5.95738e-09       1.90640e-10       1.37117e-15       2.98585e-11       5.49245e-01       4.56927e-02       5.49245e-01      
 2.07000e-01       7.87508e-09       2.52490e-10       1.37423e-15       3.95436e-11       5.49245e-01       4.56982e-02       5.49245e-01      
 2.16000e-01       1.04007e-08       3.34211e-10       1.37853e-15       5.23382e-11       5.49245e-01       4.57056e-02       5.49245e-01      
 2.25000e-01       1.37217e-08       4.42083e-10       1.38427e-15       6.92232e-11       5.49245e-01       4.57153e-02       5.49245e-01      
 2.34000e-01       1.80810e-08       5.84310e-10       1.39167e-15       9.14790e-11       5.49245e-01       4.57281e-02       5.49245e-01      
 2.43000e-01       2.37914e-08       7.71586e-10       1.40100e-15       1.20772e-10       5.49245e-01       4.57449e-02       5.49245e-01      
 2.52000e-01       3.12538e-08       1.01780e-09       1.41252e-15       1.59265e-10       5.49245e-01       4.57670e-02       5.49245e-01      
 2.61000e-01       4.09787e-08       1.34093e-09       1.42654e-15       2.09747e-10       5.49245e-01       4.57960e-02       5.49245e-01      
 2.70000e-01       5.36124e-08       1.76413e-09       1.44335e-15       2.75803e-10       5.49245e-01       4.58339e-02       5.49245e-01      
 2.79000e-01       6.99655e-08       2.31709e-09       1.46326e-15       3.62014e-10       5.49245e-01       4.58833e-02       5.49245e-01      
 2.88000e-01       9.10462e-08       3.03767e-09       1.48660e-15       4.74185e-10       5.49245e-01       4.59475e-02       5.49245e-01      
 2.97000e-01       1.18095e-07       3.97380e-09       1.51365e-15       6.19626e-10       5.49245e-01       4.60308e-02       5.49245e-01      
 3.06000e-01       1.52620e-07       5.18578e-09       1.54470e-15       8.07447e-10       5.49245e-01       4.61381e-02       5.49245e-01      
 3.15000e-01       1.96433e-07       6.74880e-09       1.57997e-15       1.04889e-09       5.49245e-01       4.62759e-02       5.49245e-01      
 3.24000e-01       2.51675e-07       8.75583e-09       1.61966e-15       1.35764e-09       5.49245e-01       4.64517e-02       5.49245e-01      
 3.33000e-01       3.20838e-07       1.13207e-08       1.66390e-15       1.75015e-09       5.49245e-01       4.66746e-02       5.49245e-01      
 3.42000e-01       4.06770e-07       1.45812e-08       1.71278e-15       2.24589e-09       5.49245e-01       4.69553e-02       5.49245e-01      
 3.51000e-01       5.12665e-07       1.87024e-08       1.76630e-15       2.86748e-09       5.49245e-01       4.73057e-02       5.49245e-01      
 3.60000e-01       6.42026e-07       2.38795e-08       1.82440e-15       3.64066e-09       5.49245e-01       4.77394e-02       5.49245e-01      
 3.69000e-01       7.98614e-07       3.03405e-08       1.88692e-15       4.59415e-09       5.49245e-01       4.82710e-02       5.49245e-01      
 3.78000e-01       9.86360e-07       3.83481e-08       1.95366e-15       5.75918e-09       5.49245e-01       4.89159e-02       5.49245e-01      
 3.87000e-01       1.20927e-06       4.82005e-08       2.02433e-15       7.16887e-09       5.49245e-01       4.96895e-02       5.49245e-01      
 3.96000e-01       1.47132e-06       6.02324e-08       2.09858e-15       8.85740e-09       5.49245e-01       5.06068e-02       5.49245e-01      
 4.05000e-01       1.77633e-06       7.48132e-08       2.17601e-15       1.08590e-08       5.49245e-01       5.16819e-02       5.49245e-01      
 4.14000e-01       2.12789e-06       9.23460e-08       2.25615e-15       1.32072e-08       5.49245e-01       5.29268e-02       5.49245e-01      
 4.23000e-01       2.52933e-06       1.13265e-07       2.33852e-15       1.59336e-08       5.49245e-01       5.43517e-02       5.49245e-01      
 4.32000e-01       2.98370e-06       1.38033e-07       2.42259e-15       1.90677e-08       5.49245e-01       5.59639e-02       5.49245e-01      
 4.41000e-01       3.49387e-06       1.67139e-07       2.50783e-15       2.26360e-08       5.49245e-01       5.77686e-02       5.49245e-01      
 4.50000e-01       4.06270e-06       2.01098e-07       2.59369e-15       2.66626e-08       5.49245e-01       5.97686e-02       5.49245e-01      
 4.59000e-01       4.69313e-06       2.40452e-07       2.67965e-15       3.11694e-08       5.49245e-01       6.19648e-02       5.49245e-01      
 4.68000e-01       5.38841e-06       2.85769e-07       2.76520e-15       3.61764e-08       5.49245e-01       6.43566e-02       5.49245e-01      
 4.77000e-01       6.15217e-06       3.37649e-07       2.84985e-15       4.17026e-08       5.49245e-01       6.69428e-02       5.49245e-01      
 4.86000e-01       6.98849e-06       3.96726e-07       2.93318e-15       4.77666e-08       5.49245e-01       6.97215e-02       5.49245e-01      
 4.95000e-01       7.90184e-06       4.63673e-07       3.01478e-15       5.43875e-08       5.49245e-01       7.26908e-02       5.49245e-01      
 5.04000e-01       8.89700e-06       5.39205e-07       3.09430e-15       6.15848e-08       5.49245e-01       7.58487e-02       5.49245e-01      
 5.13000e-01       9.97885e-06       6.24079e-07       3.17145e-15       6.93792e-08       5.49245e-01       7.91936e-02       5.49245e-01      
 5.22000e-01       1.11522e-05       7.19098e-07       3.24599e-15       7.77923e-08       5.49245e-01       8.27240e-02       5.49245e-01      
 5.31000e-01       1.24215e-05       8.25107e-07       3.31771e-15       8.68469e-08       5.49245e-01       8.64387e-02       5.49245e-01      
 5.40000e-01       1.37908e-05       9.42986e-07       3.38648e-15       9.65661e-08       5.49245e-01       9.03361e-02       5.49245e-01      
 5.49000e-01       1.52632e-05       1.07365e-06       3.45220e-15       1.06974e-07       5.49245e-01       9.44149e-02       5.49245e-01      
 5.58000e-01       1.68410e-05       1.21804e-06       3.51482e-15       1.18094e-07       5.49245e-01       9.86730e-02       5.49245e-01      
 5.67000e-01       1.85255e-05       1.37711e-06       3.57431e-15       1.29950e-07       5.49245e-01       1.03108e-01       5.49245e-01      
 5.76000e-01       2.03168e-05       1.55182e-06       3.63069e-15       1.42565e-07       5.49245e-01       1.07718e-01       5.49245e-01      
 5.85000e-01       2.22139e-05       1.74313e-06       3.68401e-15       1.55962e-07       5.49245e-01       1.12499e-01       5.49245e-01      
 5.94000e-01       2.42149e-05       1.95198e-06       3.73433e-15       1.70161e-07       5.49245e-01       1.17446e-01       5.49245e-01      
 6.03000e-01       2.63163e-05       2.17930e-06       3.78175e-15       1.85183e-07       5.49245e-01       1.22555e-01       5.49245e-01      
 6.12000e-01       2.85142e-05       2.42596e-06       3.82637e-15       2.01047e-07       5.49245e-01       1.27822e-01       5.49245e-01      
 6.21000e-01       3.08033e-05       2.69283e-06       3.86829e-15       2.17769e-07       5.49245e-01       1.33239e-01       5.49245e-01      
 6.30000e-01       3.31779e-05       2.98068e-06       3.90765e-15       2.35368e-07       5.49245e-01       1.38801e-01       5.49245e-01      
 6.39000e-01       3.56315e-05       3.29027e-06       3.94457e-15       2.53856e-07       5.49245e-01       1.44500e-01       5.49245e-01      
 6.48000e-01       3.81573e-05       3.62226e-06       3.97918e-15       2.73249e-07       5.49245e-01       1.50330e-01       5.49245e-01      
 6.57000e-01       4.07481e-05       3.97729e-06       4.01161e-15       2.93559e-07       5.49245e-01       1.56284e-01       5.49245e-01      
 6.66000e-01       4.33964e-05       4.35590e-06       4.04200e-15       3.14798e-07       5.49245e-01       1.62353e-01       5.49245e-01      
 6.75000e-01       4.60951e-05       4.75858e-06       4.07047e-15       3.36979e-07       5.49245e-01       1.68530e-01       5.49245e-01      
 6.84000e-01       4.88367e-05       5.18574e-06       4.09715e-15       3.60112e-07       5.49245e-01       1.74808e-01       5.49245e-01      
 6.93000e-01       5.16142e-05       5.63775e-06       4.12215e-15       3.84208e-07       5.49245e-01       1.81179e-01       5.49245e-01      
 7.02000e-01       5.44207e-05       6.11488e-06       4.14559e-15       4.09278e-07       5.49245e-01       1.87637e-01       5.49245e-01      
 7.11000e-01       5.72499e-05       6.61739e-06       4.16758e-15       4.35332e-07       5.49245e-01       1.94173e-01       5.49245e-01      
 7.20000e-01       6.00955e-05       7.14543e-06       4.18822e-15       4.62383e-07       5.49245e-01       2.00782e-01       5.49245e-01      
 7.29000e-01       6.29520e-05       7.69914e-06       4.20760e-15       4.90442e-07       5.49245e-01       2.07456e-01       5.49245e-01      
 7.38000e-01       6.58142e-05       8.27858e-06       4.22583e-15       5.19521e-07       5.49245e-01       2.14189e-01       5.49245e-01      
 7.47000e-01       6.86771e-05       8.88380e-06       4.24299e-15       5.49632e-07       5.49245e-01       2.20977e-01       5.49245e-01      
 7.56000e-01       7.15366e-05       9.51476e-06       4.25915e-15       5.80791e-07       5.49245e-01       2.27812e-01       5.49245e-01      
 7.65000e-01       7.43888e-05       1.01714e-05       4.27438e-15       6.13012e-07       5.49245e-01       2.34690e-01       5.49245e-01      
 7.74000e-01       7.72300e-05       1.08537e-05       4.28877e-15       6.46310e-07       5.49245e-01       2.41606e-01       5.49245e-01      
 7.83000e-01       8.00573e-05       1.15615e-05       4.30237e-15       6.80704e-07       5.49245e-01       2.48556e-01       5.49245e-01      
 7.92000e-01       8.28678e-05       1.22947e-05       4.31523e-15       7.16211e-07       5.49245e-01       2.55536e-01       5.49245e-01      
 8.01000e-01       8.56593e-05       1.30531e-05       4.32743e-15       7.52852e-07       5.49245e-01       2.62540e-01       5.49245e-01      
 8.10000e-01       8.84295e-05       1.38365e-05       4.33899e-15       7.90648e-07       5.49245e-01       2.69567e-01       5.49245e-01      
 8.19000e-01       9.11768e-05       1.46448e-05       4.34998e-15       8.29622e-07       5.49245e-01       2.76613e-01       5.49245e-01      
 8.28000e-01       9.38994e-05       1.54776e-05       4.36043e-15       8.69798e-07       5.49245e-01       2.83675e-01       5.49245e-01      
 8.37000e-01       9.65962e-05       1.63349e-05       4.37038e-15       9.11203e-07       5.49245e-01       2.90750e-01       5.49245e-01      
 8.46000e-01       9.92659e-05       1.72163e-05       4.37987e-15       9.53865e-07       5.49245e-01       2.97835e-01       5.49245e-01      
 8.55000e-01       1.01908e-04       1.81216e-05       4.38893e-15       9.97815e-07       5.49245e-01       3.04929e-01       5.49245e-01      
 8.64000e-01       1.04520e-04       1.90505e-05       4.39759e-15       1.04308e-06       5.49245e-01       3.12030e-01       5.49245e-01      
 8.73000e-01       1.07104e-04       2.00028e-05       4.40588e-15       1.08971e-06       5.49245e-01       3.19135e-01       5.49245e-01      
 8.82000e-01       1.09657e-04       2.09783e-05       4.41382e-15       1.13772e-06       5.49245e-01       3.26243e-01       5.49245e-01      
 8.91000e-01       1.12179e-04       2.19766e-05       4.42144e-15       1.18716e-06       5.49245e-01       3.33352e-01       5.49245e-01      
 9.00000e-01       1.14671e-04       2.29974e-05       4.42876e-15       1.23806e-06       5.49245e-01       3.40462e-01       5.49245e-01      
 9.09000e-01       1.17132e-04       2.40406e-05       4.43580e-15       1.29049e-06       5.49245e-01       3.47570e-01       5.49245e-01      
 9.18000e-01       1.19561e-04       2.51057e-05       4.44258e-15       1.34447e-06       5.49245e-01       3.54677e-01       5.49245e-01      
 9.27000e-01       1.21958e-04       2.61926e-05       4.44912e-15       1.40005e-06       5.49245e-01       3.61780e-01       5.49245e-01      
 9.36000e-01       1.24323e-04       2.73008e-05       4.45544e-15       1.45730e-06       5.49245e-01       3.68879e-01       5.49245e-01      
 9.45000e-01       1.26656e-04       2.84303e-05       4.46154e-15       1.51626e-06       5.49245e-01       3.75974e-01       5.49245e-01      
 9.54000e-01       1.28958e-04       2.95806e-05       4.46745e-15       1.57699e-06       5.49245e-01       3.83064e-01       5.49245e-01      
 9.63000e-01       1.31227e-04       3.07514e-05       4.47317e-15       1.63955e-06       5.49245e-01       3.90148e-01       5.49245e-01      
 9.72000e-01       1.33463e-04       3.19425e-05       4.47873e-15       1.70401e-06       5.49245e-01       3.97226e-01       5.49245e-01      
 9.81000e-01       1.35668e-04       3.31537e-05       4.48413e-15       1.77044e-06       5.49245e-01       4.04297e-01       5.49245e-01      
 9.90000e-01       1.37840e-04       3.43845e-05       4.48939e-15       1.83890e-06       5.49245e-01       4.11361e-01       5.49245e-01      
 9.99000e-01       1.39979e-04       3.56347e-05       4.49451e-15       1.90948e-06       5.49245e-01       4.18418e-01       5.49245e-01      
 1.00800e+00       1.42087e-04       3.69040e-05       4.49951e-15       1.98225e-06       5.49245e-01       4.25467e-01       5.49245e-01      
 1.01700e+00       1.44161e-04       3.81921e-05       4.50440e-15       2.05731e-06       5.49245e-01       4.32508e-01       5.49245e-01      
 1.02600e+00       1.46204e-04       3.94988e-05       4.50919e-15       2.13474e-06       5.49245e-01       4.39542e-01       5.49245e-01      
 1.03500e+00       1.48213e-04       4.08237e-05       4.51389e-15       2.21464e-06       5.49245e-01       4.46568e-01       5.49245e-01      
 1.04400e+00       1.50190e-04       4.21666e-05       4.51850e-15       2.29710e-06       5.49245e-01       4.53585e-01       5.49245e-01      
 1.05300e+00       1.52135e-04       4.35270e-05       4.52305e-15       2.38225e-06       5.49245e-01       4.60595e-01       5.49245e-01      
 1.06200e+00       1.54047e-04       4.49049e-05       4.52753e-15       2.47019e-06       5.49245e-01       4.67596e-01       5.49245e-01      
 1.07100e+00       1.55926e-04       4.62998e-05       4.53195e-15       2.56104e-06       5.49245e-01       4.74589e-01       5.49245e-01      
 1.08000e+00       1.57772e-04       4.77114e-05       4.53633e-15       2.65494e-06       5.49245e-01       4.81575e-01       5.49245e-01      
 1.08900e+00       1.59585e-04       4.91396e-05       4.54067e-15       2.75202e-06       5.49245e-01       4.88552e-01       5.49245e-01      
 1.09800e+00       1.61366e-04       5.05839e-05       4.54498e-15       2.85242e-06       5.49245e-01       4.95521e-01       5.49245e-01      
 1.10700e+00       1.63113e-04       5.20441e-05       4.54928e-15       2.95630e-06       5.49245e-01       5.02483e-01       5.49245e-01      
 1.11600e+00       1.64828e-04       5.35198e-05       4.55356e-15       3.06382e-06       5.49245e-01       5.09436e-01       5.49245e-01      
 1.12500e+00       1.66509e-04       5.50109e-05       4.55784e-15       3.17516e-06       5.49245e-01       5.16382e-01       5.49245e-01      
 1.13400e+00       1.68157e-04       5.65169e-05       4.56212e-15       3.29051e-06       5.49245e-01       5.23321e-01       5.49245e-01      
 1.14300e+00       1.69772e-04       5.80376e-05       4.56642e-15       3.41005e-06       5.49245e-01       5.30252e-01       5.49245e-01      
 1.15200e+00       1.71354e-04       5.95727e-05       4.57074e-15       3.53401e-06       5.49245e-01       5.37177e-01       5.49245e-01      
 1.16100e+00       1.72901e-04       6.11219e-05       4.57510e-15       3.66259e-06       5.49245e-01       5.44094e-01       5.49245e-01      
 1.17000e+00       1.74415e-04       6.26848e-05       4.57950e-15       3.79605e-06       5.49245e-01       5.51004e-01       5.49245e-01      
 1.17900e+00       1.75896e-04       6.42612e-05       4.58396e-15       3.93464e-06       5.49245e-01       5.57908e-01       5.49245e-01      
 1.18800e+00       1.77342e-04       6.58508e-05       4.58848e-15       4.07863e-06       5.49245e-01       5.64805e-01       5.49245e-01      
 1.19700e+00       1.78754e-04       6.74533e-05       4.59307e-15       4.22831e-06       5.49245e-01       5.71696e-01       5.49245e-01      
 1.20600e+00       1.80132e-04       6.90683e-05       4.59775e-15       4.38399e-06       5.49245e-01       5.78581e-01       5.49245e-01      
 1.21500e+00       1.81475e-04       7.06956e-05       4.60253e-15       4.54600e-06       5.49245e-01       5.85460e-01       5.49245e-01      
