
dc (V)            getData("M0:gm    getData("M0:id    getData("M0:cg    getData("M0:gd    getData("M0:vt    getData("M0:vd    getData("M0:vt

 0.00000e+00       1.84363e-12       7.80690e-14       8.71259e-15       1.98823e-15       5.18903e-01       4.03947e-02       5.18903e-01      
 9.00000e-03       2.47106e-12       9.73475e-14       8.67346e-15       2.66511e-15       5.18903e-01       4.03947e-02       5.18903e-01      
 1.80000e-02       3.31190e-12       1.23187e-13       8.63562e-15       3.57234e-15       5.18903e-01       4.03948e-02       5.18903e-01      
 2.70000e-02       4.43863e-12       1.57817e-13       8.59910e-15       4.78824e-15       5.18903e-01       4.03948e-02       5.18903e-01      
 3.60000e-02       5.94836e-12       2.04228e-13       8.56395e-15       6.41776e-15       5.18903e-01       4.03948e-02       5.18903e-01      
 4.50000e-02       7.97106e-12       2.66422e-13       8.53021e-15       8.60144e-15       5.18903e-01       4.03949e-02       5.18903e-01      
 5.40000e-02       1.06807e-11       3.49762e-13       8.49795e-15       1.15276e-14       5.18903e-01       4.03950e-02       5.18903e-01      
 6.30000e-02       1.43103e-11       4.61427e-13       8.46728e-15       1.54482e-14       5.18903e-01       4.03951e-02       5.18903e-01      
 7.20000e-02       1.91712e-11       6.11031e-13       8.43831e-15       2.07008e-14       5.18903e-01       4.03952e-02       5.18903e-01      
 8.10000e-02       2.56800e-11       8.11438e-13       8.41121e-15       2.77372e-14       5.18903e-01       4.03954e-02       5.18903e-01      
 9.00000e-02       3.43938e-11       1.07987e-12       8.38617e-15       3.71617e-14       5.18903e-01       4.03956e-02       5.18903e-01      
 9.90000e-02       4.60564e-11       1.43935e-12       8.36343e-15       4.97830e-14       5.18903e-01       4.03959e-02       5.18903e-01      
 1.08000e-01       6.16613e-11       1.92068e-12       8.34330e-15       6.66821e-14       5.18903e-01       4.03963e-02       5.18903e-01      
 1.17000e-01       8.25341e-11       2.56501e-12       8.32615e-15       8.93040e-14       5.18903e-01       4.03968e-02       5.18903e-01      
 1.26000e-01       1.10442e-10       3.42734e-12       8.31244e-15       1.19579e-13       5.18903e-01       4.03976e-02       5.18903e-01      
 1.35000e-01       1.47738e-10       4.58106e-12       8.30272e-15       1.60083e-13       5.18903e-01       4.03985e-02       5.18903e-01      
 1.44000e-01       1.97554e-10       6.12409e-12       8.29766e-15       2.14252e-13       5.18903e-01       4.03998e-02       5.18903e-01      
 1.53000e-01       2.64048e-10       8.18693e-12       8.29807e-15       2.86668e-13       5.18903e-01       4.04016e-02       5.18903e-01      
 1.62000e-01       3.52711e-10       1.09433e-11       8.30442e-15       3.83421e-13       5.18903e-01       4.04039e-02       5.18903e-01      
 1.71000e-01       4.70843e-10       1.46239e-11       8.31834e-15       5.12609e-13       5.18903e-01       4.04070e-02       5.18903e-01      
 1.80000e-01       6.28069e-10       1.95354e-11       8.34115e-15       6.84981e-13       5.18903e-01       4.04112e-02       5.18903e-01      
 1.89000e-01       8.37060e-10       2.60841e-11       8.37438e-15       9.14776e-13       5.18903e-01       4.04167e-02       5.18903e-01      
 1.98000e-01       1.11445e-09       3.48072e-11       8.41982e-15       1.22081e-12       5.18903e-01       4.04240e-02       5.18903e-01      
 2.07000e-01       1.48197e-09       4.64139e-11       8.47947e-15       1.62791e-12       5.18903e-01       4.04338e-02       5.18903e-01      
 2.16000e-01       1.96795e-09       6.18372e-11       8.55558e-15       2.16869e-12       5.18903e-01       4.04468e-02       5.18903e-01      
 2.25000e-01       2.60903e-09       8.23012e-11       8.65061e-15       2.88587e-12       5.18903e-01       4.04640e-02       5.18903e-01      
 2.34000e-01       3.45242e-09       1.09405e-10       8.76722e-15       3.83520e-12       5.18903e-01       4.04868e-02       5.18903e-01      
 2.43000e-01       4.55847e-09       1.45231e-10       8.90821e-15       5.08900e-12       5.18903e-01       4.05169e-02       5.18903e-01      
 2.52000e-01       6.00374e-09       1.92474e-10       9.07648e-15       6.74060e-12       5.18903e-01       4.05566e-02       5.18903e-01      
 2.61000e-01       7.88444e-09       2.54602e-10       9.27489e-15       8.90965e-12       5.18903e-01       4.06085e-02       5.18903e-01      
 2.70000e-01       1.03203e-08       3.36056e-10       9.50623e-15       1.17483e-11       5.18903e-01       4.06765e-02       5.18903e-01      
 2.79000e-01       1.34584e-08       4.42471e-10       9.77308e-15       1.54481e-11       5.18903e-01       4.07650e-02       5.18903e-01      
 2.88000e-01       1.74774e-08       5.80946e-10       1.00777e-14       2.02480e-11       5.18903e-01       4.08795e-02       5.18903e-01      
 2.97000e-01       2.25906e-08       7.60343e-10       1.04219e-14       2.64424e-11       5.18903e-01       4.10270e-02       5.18903e-01      
 3.06000e-01       2.90492e-08       9.91609e-10       1.08070e-14       3.43885e-11       5.18903e-01       4.12156e-02       5.18903e-01      
 3.15000e-01       3.71433e-08       1.28813e-09       1.12337e-14       4.45136e-11       5.18903e-01       4.14550e-02       5.18903e-01      
 3.24000e-01       4.72019e-08       1.66608e-09       1.17021e-14       5.73194e-11       5.18903e-01       4.17563e-02       5.18903e-01      
 3.33000e-01       5.95900e-08       2.14475e-09       1.22115e-14       7.33837e-11       5.18903e-01       4.21321e-02       5.18903e-01      
 3.42000e-01       7.47043e-08       2.74687e-09       1.27605e-14       9.33575e-11       5.18903e-01       4.25959e-02       5.18903e-01      
 3.51000e-01       9.29652e-08       3.49887e-09       1.33470e-14       1.17958e-10       5.18903e-01       4.31622e-02       5.18903e-01      
 3.60000e-01       1.14807e-07       4.43099e-09       1.39684e-14       1.47953e-10       5.18903e-01       4.38456e-02       5.18903e-01      
 3.69000e-01       1.40669e-07       5.57746e-09       1.46212e-14       1.84148e-10       5.18903e-01       4.46602e-02       5.18903e-01      
 3.78000e-01       1.70982e-07       6.97639e-09       1.53015e-14       2.27362e-10       5.18903e-01       4.56192e-02       5.18903e-01      
 3.87000e-01       2.06160e-07       8.66973e-09       1.60050e-14       2.78409e-10       5.18903e-01       4.67341e-02       5.18903e-01      
 3.96000e-01       2.46599e-07       1.07030e-08       1.67271e-14       3.38077e-10       5.18903e-01       4.80145e-02       5.18903e-01      
 4.05000e-01       2.92677e-07       1.31254e-08       1.74627e-14       4.07115e-10       5.18903e-01       4.94675e-02       5.18903e-01      
 4.14000e-01       3.44765e-07       1.59893e-08       1.82069e-14       4.86228e-10       5.18903e-01       5.10980e-02       5.18903e-01      
 4.23000e-01       4.03243e-07       1.93504e-08       1.89547e-14       5.76077e-10       5.18903e-01       5.29089e-02       5.18903e-01      
 4.32000e-01       4.68513e-07       2.32680e-08       1.97013e-14       6.77283e-10       5.18903e-01       5.49014e-02       5.18903e-01      
 4.41000e-01       5.41025e-07       2.78053e-08       2.04420e-14       7.90443e-10       5.18903e-01       5.70757e-02       5.18903e-01      
 4.50000e-01       6.21281e-07       3.30297e-08       2.11726e-14       9.16146e-10       5.18903e-01       5.94311e-02       5.18903e-01      
 4.59000e-01       7.09838e-07       3.90133e-08       2.18891e-14       1.05498e-09       5.18903e-01       6.19667e-02       5.18903e-01      
 4.68000e-01       8.07309e-07       4.58335e-08       2.25882e-14       1.20756e-09       5.18903e-01       6.46819e-02       5.18903e-01      
 4.77000e-01       9.14339e-07       5.35735e-08       2.32669e-14       1.37451e-09       5.18903e-01       6.75759e-02       5.18903e-01      
 4.86000e-01       1.03159e-06       6.23223e-08       2.39228e-14       1.55648e-09       5.18903e-01       7.06483e-02       5.18903e-01      
 4.95000e-01       1.15972e-06       7.21748e-08       2.45538e-14       1.75416e-09       5.18903e-01       7.38990e-02       5.18903e-01      
 5.04000e-01       1.29934e-06       8.32317e-08       2.51584e-14       1.96824e-09       5.18903e-01       7.73280e-02       5.18903e-01      
 5.13000e-01       1.45101e-06       9.55991e-08       2.57358e-14       2.19944e-09       5.18903e-01       8.09350e-02       5.18903e-01      
 5.22000e-01       1.61519e-06       1.09387e-07       2.62852e-14       2.44847e-09       5.18903e-01       8.47197e-02       5.18903e-01      
 5.31000e-01       1.79225e-06       1.24711e-07       2.68064e-14       2.71604e-09       5.18903e-01       8.86814e-02       5.18903e-01      
 5.40000e-01       1.98244e-06       1.41687e-07       2.72995e-14       3.00284e-09       5.18903e-01       9.28189e-02       5.18903e-01      
 5.49000e-01       2.18588e-06       1.60435e-07       2.77649e-14       3.30952e-09       5.18903e-01       9.71304e-02       5.18903e-01      
 5.58000e-01       2.40255e-06       1.81073e-07       2.82031e-14       3.63672e-09       5.18903e-01       1.01614e-01       5.18903e-01      
 5.67000e-01       2.63230e-06       2.03720e-07       2.86150e-14       3.98503e-09       5.18903e-01       1.06265e-01       5.18903e-01      
 5.76000e-01       2.87487e-06       2.28493e-07       2.90015e-14       4.35501e-09       5.18903e-01       1.11082e-01       5.18903e-01      
 5.85000e-01       3.12987e-06       2.55505e-07       2.93637e-14       4.74718e-09       5.18903e-01       1.16059e-01       5.18903e-01      
 5.94000e-01       3.39681e-06       2.84866e-07       2.97027e-14       5.16200e-09       5.18903e-01       1.21192e-01       5.18903e-01      
 6.03000e-01       3.67510e-06       3.16682e-07       3.00196e-14       5.59992e-09       5.18903e-01       1.26475e-01       5.18903e-01      
 6.12000e-01       3.96410e-06       3.51050e-07       3.03158e-14       6.06133e-09       5.18903e-01       1.31902e-01       5.18903e-01      
 6.21000e-01       4.26309e-06       3.88065e-07       3.05923e-14       6.54663e-09       5.18903e-01       1.37468e-01       5.18903e-01      
 6.30000e-01       4.57133e-06       4.27814e-07       3.08505e-14       7.05615e-09       5.18903e-01       1.43165e-01       5.18903e-01      
 6.39000e-01       4.88806e-06       4.70375e-07       3.10915e-14       7.59025e-09       5.18903e-01       1.48988e-01       5.18903e-01      
 6.48000e-01       5.21249e-06       5.15822e-07       3.13164e-14       8.14926e-09       5.18903e-01       1.54930e-01       5.18903e-01      
 6.57000e-01       5.54387e-06       5.64220e-07       3.15264e-14       8.73350e-09       5.18903e-01       1.60984e-01       5.18903e-01      
 6.66000e-01       5.88143e-06       6.15630e-07       3.17224e-14       9.34331e-09       5.18903e-01       1.67144e-01       5.18903e-01      
 6.75000e-01       6.22447e-06       6.70103e-07       3.19056e-14       9.97904e-09       5.18903e-01       1.73404e-01       5.18903e-01      
 6.84000e-01       6.57228e-06       7.27685e-07       3.20768e-14       1.06411e-08       5.18903e-01       1.79757e-01       5.18903e-01      
 6.93000e-01       6.92421e-06       7.88416e-07       3.22369e-14       1.13298e-08       5.18903e-01       1.86197e-01       5.18903e-01      
 7.02000e-01       7.27967e-06       8.52331e-07       3.23868e-14       1.20455e-08       5.18903e-01       1.92719e-01       5.18903e-01      
 7.11000e-01       7.63808e-06       9.19459e-07       3.25272e-14       1.27889e-08       5.18903e-01       1.99318e-01       5.18903e-01      
 7.20000e-01       7.99893e-06       9.89824e-07       3.26589e-14       1.35603e-08       5.18903e-01       2.05987e-01       5.18903e-01      
 7.29000e-01       8.36175e-06       1.06345e-06       3.27825e-14       1.43603e-08       5.18903e-01       2.12724e-01       5.18903e-01      
 7.38000e-01       8.72610e-06       1.14034e-06       3.28986e-14       1.51895e-08       5.18903e-01       2.19522e-01       5.18903e-01      
 7.47000e-01       9.09160e-06       1.22052e-06       3.30079e-14       1.60485e-08       5.18903e-01       2.26377e-01       5.18903e-01      
 7.56000e-01       9.45790e-06       1.30399e-06       3.31109e-14       1.69381e-08       5.18903e-01       2.33287e-01       5.18903e-01      
 7.65000e-01       9.82469e-06       1.39076e-06       3.32080e-14       1.78591e-08       5.18903e-01       2.40247e-01       5.18903e-01      
 7.74000e-01       1.01917e-05       1.48084e-06       3.32998e-14       1.88122e-08       5.18903e-01       2.47253e-01       5.18903e-01      
 7.83000e-01       1.05587e-05       1.57421e-06       3.33865e-14       1.97984e-08       5.18903e-01       2.54303e-01       5.18903e-01      
 7.92000e-01       1.09254e-05       1.67089e-06       3.34687e-14       2.08187e-08       5.18903e-01       2.61394e-01       5.18903e-01      
 8.01000e-01       1.12916e-05       1.77087e-06       3.35467e-14       2.18742e-08       5.18903e-01       2.68524e-01       5.18903e-01      
 8.10000e-01       1.16573e-05       1.87414e-06       3.36207e-14       2.29660e-08       5.18903e-01       2.75689e-01       5.18903e-01      
 8.19000e-01       1.20221e-05       1.98070e-06       3.36911e-14       2.40954e-08       5.18903e-01       2.82887e-01       5.18903e-01      
 8.28000e-01       1.23861e-05       2.09053e-06       3.37582e-14       2.52638e-08       5.18903e-01       2.90117e-01       5.18903e-01      
 8.37000e-01       1.27490e-05       2.20364e-06       3.38222e-14       2.64727e-08       5.18903e-01       2.97377e-01       5.18903e-01      
 8.46000e-01       1.31108e-05       2.32001e-06       3.38833e-14       2.77235e-08       5.18903e-01       3.04665e-01       5.18903e-01      
 8.55000e-01       1.34713e-05       2.43963e-06       3.39418e-14       2.90181e-08       5.18903e-01       3.11980e-01       5.18903e-01      
 8.64000e-01       1.38305e-05       2.56249e-06       3.39978e-14       3.03583e-08       5.18903e-01       3.19320e-01       5.18903e-01      
 8.73000e-01       1.41883e-05       2.68858e-06       3.40515e-14       3.17460e-08       5.18903e-01       3.26684e-01       5.18903e-01      
 8.82000e-01       1.45446e-05       2.81788e-06       3.41031e-14       3.31834e-08       5.18903e-01       3.34070e-01       5.18903e-01      
 8.91000e-01       1.48994e-05       2.95038e-06       3.41528e-14       3.46728e-08       5.18903e-01       3.41479e-01       5.18903e-01      
 9.00000e-01       1.52525e-05       3.08606e-06       3.42006e-14       3.62167e-08       5.18903e-01       3.48908e-01       5.18903e-01      
 9.09000e-01       1.56040e-05       3.22492e-06       3.42467e-14       3.78176e-08       5.18903e-01       3.56358e-01       5.18903e-01      
 9.18000e-01       1.59538e-05       3.36693e-06       3.42913e-14       3.94786e-08       5.18903e-01       3.63827e-01       5.18903e-01      
 9.27000e-01       1.63017e-05       3.51208e-06       3.43344e-14       4.12026e-08       5.18903e-01       3.71314e-01       5.18903e-01      
 9.36000e-01       1.66479e-05       3.66035e-06       3.43761e-14       4.29930e-08       5.18903e-01       3.78820e-01       5.18903e-01      
 9.45000e-01       1.69921e-05       3.81173e-06       3.44165e-14       4.48534e-08       5.18903e-01       3.86343e-01       5.18903e-01      
 9.54000e-01       1.73344e-05       3.96621e-06       3.44557e-14       4.67876e-08       5.18903e-01       3.93884e-01       5.18903e-01      
 9.63000e-01       1.76747e-05       4.12375e-06       3.44939e-14       4.87999e-08       5.18903e-01       4.01441e-01       5.18903e-01      
 9.72000e-01       1.80129e-05       4.28434e-06       3.45310e-14       5.08949e-08       5.18903e-01       4.09014e-01       5.18903e-01      
 9.81000e-01       1.83490e-05       4.44797e-06       3.45671e-14       5.30772e-08       5.18903e-01       4.16603e-01       5.18903e-01      
 9.90000e-01       1.86830e-05       4.61462e-06       3.46023e-14       5.53524e-08       5.18903e-01       4.24208e-01       5.18903e-01      
 9.99000e-01       1.90148e-05       4.78426e-06       3.46367e-14       5.77262e-08       5.18903e-01       4.31829e-01       5.18903e-01      
 1.00800e+00       1.93444e-05       4.95688e-06       3.46704e-14       6.02047e-08       5.18903e-01       4.39464e-01       5.18903e-01      
 1.01700e+00       1.96716e-05       5.13245e-06       3.47033e-14       6.27949e-08       5.18903e-01       4.47114e-01       5.18903e-01      
 1.02600e+00       1.99965e-05       5.31096e-06       3.47355e-14       6.55040e-08       5.18903e-01       4.54779e-01       5.18903e-01      
 1.03500e+00       2.03190e-05       5.49238e-06       3.47671e-14       6.83402e-08       5.18903e-01       4.62459e-01       5.18903e-01      
 1.04400e+00       2.06390e-05       5.67669e-06       3.47982e-14       7.13121e-08       5.18903e-01       4.70153e-01       5.18903e-01      
 1.05300e+00       2.09565e-05       5.86388e-06       3.48287e-14       7.44294e-08       5.18903e-01       4.77862e-01       5.18903e-01      
 1.06200e+00       2.12714e-05       6.05390e-06       3.48588e-14       7.77024e-08       5.18903e-01       4.85585e-01       5.18903e-01      
 1.07100e+00       2.15837e-05       6.24675e-06       3.48884e-14       8.11427e-08       5.18903e-01       4.93322e-01       5.18903e-01      
 1.08000e+00       2.18933e-05       6.44240e-06       3.49176e-14       8.47627e-08       5.18903e-01       5.01073e-01       5.18903e-01      
 1.08900e+00       2.22001e-05       6.64082e-06       3.49465e-14       8.85762e-08       5.18903e-01       5.08838e-01       5.18903e-01      
 1.09800e+00       2.25042e-05       6.84200e-06       3.49750e-14       9.25982e-08       5.18903e-01       5.16617e-01       5.18903e-01      
 1.10700e+00       2.28054e-05       7.04589e-06       3.50033e-14       9.68454e-08       5.18903e-01       5.24410e-01       5.18903e-01      
 1.11600e+00       2.31037e-05       7.25248e-06       3.50313e-14       1.01336e-07       5.18903e-01       5.32217e-01       5.18903e-01      
 1.12500e+00       2.33989e-05       7.46175e-06       3.50591e-14       1.06090e-07       5.18903e-01       5.40038e-01       5.18903e-01      
 1.13400e+00       2.36912e-05       7.67366e-06       3.50867e-14       1.11130e-07       5.18903e-01       5.47874e-01       5.18903e-01      
 1.14300e+00       2.39803e-05       7.88818e-06       3.51142e-14       1.16480e-07       5.18903e-01       5.55722e-01       5.18903e-01      
 1.15200e+00       2.42662e-05       8.10529e-06       3.51416e-14       1.22167e-07       5.18903e-01       5.63585e-01       5.18903e-01      
 1.16100e+00       2.45488e-05       8.32496e-06       3.51689e-14       1.28222e-07       5.18903e-01       5.71462e-01       5.18903e-01      
 1.17000e+00       2.48281e-05       8.54716e-06       3.51962e-14       1.34679e-07       5.18903e-01       5.79353e-01       5.18903e-01      
 1.17900e+00       2.51040e-05       8.77186e-06       3.52235e-14       1.41573e-07       5.18903e-01       5.87258e-01       5.18903e-01      
 1.18800e+00       2.53765e-05       8.99902e-06       3.52509e-14       1.48947e-07       5.18903e-01       5.95177e-01       5.18903e-01      
 1.19700e+00       2.56453e-05       9.22862e-06       3.52783e-14       1.56846e-07       5.18903e-01       6.03111e-01       5.18903e-01      
 1.20600e+00       2.59105e-05       9.46063e-06       3.53059e-14       1.65323e-07       5.18903e-01       6.11058e-01       5.18903e-01      
 1.21500e+00       2.61719e-05       9.69500e-06       3.53337e-14       1.74433e-07       5.18903e-01       6.19019e-01       5.18903e-01      
