
dc (V)            getData("M0:gm    getData("M0:id    getData("M0:cg    getData("M0:gd    getData("M0:vt    getData("M0:vd    getData("M0:vt

 0.00000e+00       1.41690e-12       6.48977e-14       1.14330e-14       1.23526e-15       5.17266e-01       4.01784e-02       5.17266e-01      
 9.00000e-03       1.89993e-12       7.97174e-14       1.13810e-14       1.65652e-15       5.17266e-01       4.01785e-02       5.17266e-01      
 1.80000e-02       2.54751e-12       9.95887e-14       1.13308e-14       2.22138e-15       5.17266e-01       4.01785e-02       5.17266e-01      
 2.70000e-02       3.41567e-12       1.26232e-13       1.12823e-14       2.97874e-15       5.17266e-01       4.01785e-02       5.17266e-01      
 3.60000e-02       4.57940e-12       1.61955e-13       1.12356e-14       3.99417e-15       5.17266e-01       4.01785e-02       5.17266e-01      
 4.50000e-02       6.13922e-12       2.09847e-13       1.11908e-14       5.35552e-15       5.17266e-01       4.01786e-02       5.17266e-01      
 5.40000e-02       8.22969e-12       2.74048e-13       1.11481e-14       7.18048e-15       5.17266e-01       4.01787e-02       5.17266e-01      
 6.30000e-02       1.10310e-11       3.60107e-13       1.11075e-14       9.62674e-15       5.17266e-01       4.01788e-02       5.17266e-01      
 7.20000e-02       1.47842e-11       4.75453e-13       1.10691e-14       1.29055e-14       5.17266e-01       4.01789e-02       5.17266e-01      
 8.10000e-02       1.98119e-11       6.30035e-13       1.10333e-14       1.72995e-14       5.17266e-01       4.01791e-02       5.17266e-01      
 9.00000e-02       2.65454e-11       8.37170e-13       1.10003e-14       2.31873e-14       5.17266e-01       4.01793e-02       5.17266e-01      
 9.90000e-02       3.55613e-11       1.11468e-12       1.09704e-14       3.10755e-14       5.17266e-01       4.01796e-02       5.17266e-01      
 1.08000e-01       4.76296e-11       1.48641e-12       1.09441e-14       4.16415e-14       5.17266e-01       4.01800e-02       5.17266e-01      
 1.17000e-01       6.37781e-11       1.98422e-12       1.09218e-14       5.57914e-14       5.17266e-01       4.01806e-02       5.17266e-01      
 1.26000e-01       8.53774e-11       2.65072e-12       1.09042e-14       7.47356e-14       5.17266e-01       4.01814e-02       5.17266e-01      
 1.35000e-01       1.14253e-10       3.54278e-12       1.08920e-14       1.00091e-13       5.17266e-01       4.01824e-02       5.17266e-01      
 1.44000e-01       1.52836e-10       4.73632e-12       1.08862e-14       1.34013e-13       5.17266e-01       4.01837e-02       5.17266e-01      
 1.53000e-01       2.04352e-10       6.33253e-12       1.08879e-14       1.79378e-13       5.17266e-01       4.01855e-02       5.17266e-01      
 1.62000e-01       2.73066e-10       8.46610e-12       1.08976e-14       2.40011e-13       5.17266e-01       4.01879e-02       5.17266e-01      
 1.71000e-01       3.64645e-10       1.13161e-11       1.09177e-14       3.20998e-13       5.17266e-01       4.01911e-02       5.17266e-01      
 1.80000e-01       4.86561e-10       1.51205e-11       1.09499e-14       4.29090e-13       5.17266e-01       4.01954e-02       5.17266e-01      
 1.89000e-01       6.48654e-10       2.01945e-11       1.09964e-14       5.73235e-13       5.17266e-01       4.02011e-02       5.17266e-01      
 1.98000e-01       8.63836e-10       2.69551e-11       1.10594e-14       7.65258e-13       5.17266e-01       4.02088e-02       5.17266e-01      
 2.07000e-01       1.14898e-09       3.59529e-11       1.11419e-14       1.02075e-12       5.17266e-01       4.02189e-02       5.17266e-01      
 2.16000e-01       1.52607e-09       4.79120e-11       1.12467e-14       1.36021e-12       5.17266e-01       4.02324e-02       5.17266e-01      
 2.25000e-01       2.02352e-09       6.37824e-11       1.13773e-14       1.81049e-12       5.17266e-01       4.02502e-02       5.17266e-01      
 2.34000e-01       2.67793e-09       8.48052e-11       1.15372e-14       2.40657e-12       5.17266e-01       4.02738e-02       5.17266e-01      
 2.43000e-01       3.53605e-09       1.12595e-10       1.17302e-14       3.19388e-12       5.17266e-01       4.03050e-02       5.17266e-01      
 2.52000e-01       4.65712e-09       1.49241e-10       1.19602e-14       4.23098e-12       5.17266e-01       4.03461e-02       5.17266e-01      
 2.61000e-01       6.11551e-09       1.97433e-10       1.22309e-14       5.59289e-12       5.17266e-01       4.03999e-02       5.17266e-01      
 2.70000e-01       8.00364e-09       2.60608e-10       1.25461e-14       7.37491e-12       5.17266e-01       4.04703e-02       5.17266e-01      
 2.79000e-01       1.04349e-08       3.43126e-10       1.29091e-14       9.69698e-12       5.17266e-01       4.05619e-02       5.17266e-01      
 2.88000e-01       1.35466e-08       4.50474e-10       1.33229e-14       1.27084e-11       5.17266e-01       4.06805e-02       5.17266e-01      
 2.97000e-01       1.75025e-08       5.89494e-10       1.37898e-14       1.65929e-11       5.17266e-01       4.08330e-02       5.17266e-01      
 3.06000e-01       2.24950e-08       7.68627e-10       1.43115e-14       2.15729e-11       5.17266e-01       4.10279e-02       5.17266e-01      
 3.15000e-01       2.87455e-08       9.98175e-10       1.48887e-14       2.79141e-11       5.17266e-01       4.12750e-02       5.17266e-01      
 3.24000e-01       3.65044e-08       1.29057e-09       1.55214e-14       3.59277e-11       5.17266e-01       4.15858e-02       5.17266e-01      
 3.33000e-01       4.60488e-08       1.66061e-09       1.62085e-14       4.59710e-11       5.17266e-01       4.19728e-02       5.17266e-01      
 3.42000e-01       5.76785e-08       2.12570e-09       1.69481e-14       5.84457e-11       5.17266e-01       4.24498e-02       5.17266e-01      
 3.51000e-01       7.17102e-08       2.70603e-09       1.77371e-14       7.37929e-11       5.17266e-01       4.30312e-02       5.17266e-01      
 3.60000e-01       8.84702e-08       3.42467e-09       1.85719e-14       9.24847e-11       5.17266e-01       4.37315e-02       5.17266e-01      
 3.69000e-01       1.08286e-07       4.30766e-09       1.94477e-14       1.15014e-10       5.17266e-01       4.45648e-02       5.17266e-01      
 3.78000e-01       1.31479e-07       5.38395e-09       2.03592e-14       1.41881e-10       5.17266e-01       4.55439e-02       5.17266e-01      
 3.87000e-01       1.58358e-07       6.68534e-09       2.13006e-14       1.73583e-10       5.17266e-01       4.66800e-02       5.17266e-01      
 3.96000e-01       1.89217e-07       8.24633e-09       2.22655e-14       2.10602e-10       5.17266e-01       4.79822e-02       5.17266e-01      
 4.05000e-01       2.24339e-07       1.01040e-08       2.32473e-14       2.53398e-10       5.17266e-01       4.94571e-02       5.17266e-01      
 4.14000e-01       2.64004e-07       1.22981e-08       2.42393e-14       3.02406e-10       5.17266e-01       5.11094e-02       5.17266e-01      
 4.23000e-01       3.08499e-07       1.48706e-08       2.52350e-14       3.58035e-10       5.17266e-01       5.29416e-02       5.17266e-01      
 4.32000e-01       3.58135e-07       1.78665e-08       2.62278e-14       4.20676e-10       5.17266e-01       5.49546e-02       5.17266e-01      
 4.41000e-01       4.13258e-07       2.13335e-08       2.72117e-14       4.90709e-10       5.17266e-01       5.71486e-02       5.17266e-01      
 4.50000e-01       4.74253e-07       2.53227e-08       2.81811e-14       5.68509e-10       5.17266e-01       5.95228e-02       5.17266e-01      
 4.59000e-01       5.41551e-07       2.98889e-08       2.91309e-14       6.54459e-10       5.17266e-01       6.20764e-02       5.17266e-01      
 4.68000e-01       6.15618e-07       3.50909e-08       3.00566e-14       7.48954e-10       5.17266e-01       6.48087e-02       5.17266e-01      
 4.77000e-01       6.96947e-07       4.09918e-08       3.09544e-14       8.52402e-10       5.17266e-01       6.77191e-02       5.17266e-01      
 4.86000e-01       7.86038e-07       4.76593e-08       3.18211e-14       9.65232e-10       5.17266e-01       7.08074e-02       5.17266e-01      
 4.95000e-01       8.83381e-07       5.51653e-08       3.26543e-14       1.08789e-09       5.17266e-01       7.40734e-02       5.17266e-01      
 5.04000e-01       9.89434e-07       6.35863e-08       3.34521e-14       1.22082e-09       5.17266e-01       7.75171e-02       5.17266e-01      
 5.13000e-01       1.10461e-06       7.30025e-08       3.42132e-14       1.36449e-09       5.17266e-01       8.11384e-02       5.17266e-01      
 5.22000e-01       1.22924e-06       8.34976e-08       3.49370e-14       1.51936e-09       5.17266e-01       8.49369e-02       5.17266e-01      
 5.31000e-01       1.36360e-06       9.51580e-08       3.56232e-14       1.68589e-09       5.17266e-01       8.89118e-02       5.17266e-01      
 5.40000e-01       1.50786e-06       1.08072e-07       3.62719e-14       1.86452e-09       5.17266e-01       9.30619e-02       5.17266e-01      
 5.49000e-01       1.66209e-06       1.22329e-07       3.68838e-14       2.05568e-09       5.17266e-01       9.73854e-02       5.17266e-01      
 5.58000e-01       1.82626e-06       1.38020e-07       3.74598e-14       2.25977e-09       5.17266e-01       1.01880e-01       5.17266e-01      
 5.67000e-01       2.00025e-06       1.55232e-07       3.80009e-14       2.47718e-09       5.17266e-01       1.06542e-01       5.17266e-01      
 5.76000e-01       2.18385e-06       1.74053e-07       3.85083e-14       2.70827e-09       5.17266e-01       1.11368e-01       5.17266e-01      
 5.85000e-01       2.37674e-06       1.94569e-07       3.89837e-14       2.95336e-09       5.17266e-01       1.16353e-01       5.17266e-01      
 5.94000e-01       2.57856e-06       2.16861e-07       3.94284e-14       3.21275e-09       5.17266e-01       1.21493e-01       5.17266e-01      
 6.03000e-01       2.78885e-06       2.41008e-07       3.98442e-14       3.48674e-09       5.17266e-01       1.26782e-01       5.17266e-01      
 6.12000e-01       3.00713e-06       2.67084e-07       4.02325e-14       3.77559e-09       5.17266e-01       1.32214e-01       5.17266e-01      
 6.21000e-01       3.23284e-06       2.95159e-07       4.05951e-14       4.07953e-09       5.17266e-01       1.37783e-01       5.17266e-01      
 6.30000e-01       3.46544e-06       3.25296e-07       4.09335e-14       4.39880e-09       5.17266e-01       1.43483e-01       5.17266e-01      
 6.39000e-01       3.70435e-06       3.57556e-07       4.12493e-14       4.73361e-09       5.17266e-01       1.49307e-01       5.17266e-01      
 6.48000e-01       3.94898e-06       3.91992e-07       4.15440e-14       5.08420e-09       5.17266e-01       1.55249e-01       5.17266e-01      
 6.57000e-01       4.19876e-06       4.28653e-07       4.18191e-14       5.45077e-09       5.17266e-01       1.61302e-01       5.17266e-01      
 6.66000e-01       4.45314e-06       4.67583e-07       4.20759e-14       5.83354e-09       5.17266e-01       1.67460e-01       5.17266e-01      
 6.75000e-01       4.71158e-06       5.08821e-07       4.23159e-14       6.23275e-09       5.17266e-01       1.73716e-01       5.17266e-01      
 6.84000e-01       4.97356e-06       5.52402e-07       4.25401e-14       6.64863e-09       5.17266e-01       1.80065e-01       5.17266e-01      
 6.93000e-01       5.23860e-06       5.98355e-07       4.27499e-14       7.08145e-09       5.17266e-01       1.86500e-01       5.17266e-01      
 7.02000e-01       5.50625e-06       6.46705e-07       4.29462e-14       7.53149e-09       5.17266e-01       1.93016e-01       5.17266e-01      
 7.11000e-01       5.77610e-06       6.97474e-07       4.31301e-14       7.99904e-09       5.17266e-01       1.99607e-01       5.17266e-01      
 7.20000e-01       6.04777e-06       7.50680e-07       4.33026e-14       8.48445e-09       5.17266e-01       2.06269e-01       5.17266e-01      
 7.29000e-01       6.32091e-06       8.06338e-07       4.34645e-14       8.98807e-09       5.17266e-01       2.12997e-01       5.17266e-01      
 7.38000e-01       6.59520e-06       8.64460e-07       4.36167e-14       9.51030e-09       5.17266e-01       2.19787e-01       5.17266e-01      
 7.47000e-01       6.87035e-06       9.25054e-07       4.37599e-14       1.00516e-08       5.17266e-01       2.26633e-01       5.17266e-01      
 7.56000e-01       7.14612e-06       9.88128e-07       4.38949e-14       1.06124e-08       5.17266e-01       2.33533e-01       5.17266e-01      
 7.65000e-01       7.42227e-06       1.05369e-06       4.40221e-14       1.11932e-08       5.17266e-01       2.40483e-01       5.17266e-01      
 7.74000e-01       7.69860e-06       1.12173e-06       4.41424e-14       1.17947e-08       5.17266e-01       2.47480e-01       5.17266e-01      
 7.83000e-01       7.97493e-06       1.19226e-06       4.42561e-14       1.24173e-08       5.17266e-01       2.54519e-01       5.17266e-01      
 7.92000e-01       8.25110e-06       1.26528e-06       4.43638e-14       1.30619e-08       5.17266e-01       2.61600e-01       5.17266e-01      
 8.01000e-01       8.52696e-06       1.34078e-06       4.44660e-14       1.37291e-08       5.17266e-01       2.68719e-01       5.17266e-01      
 8.10000e-01       8.80238e-06       1.41876e-06       4.45631e-14       1.44197e-08       5.17266e-01       2.75873e-01       5.17266e-01      
 8.19000e-01       9.07727e-06       1.49922e-06       4.46555e-14       1.51345e-08       5.17266e-01       2.83062e-01       5.17266e-01      
 8.28000e-01       9.35150e-06       1.58215e-06       4.47435e-14       1.58745e-08       5.17266e-01       2.90281e-01       5.17266e-01      
 8.37000e-01       9.62501e-06       1.66755e-06       4.48274e-14       1.66406e-08       5.17266e-01       2.97531e-01       5.17266e-01      
 8.46000e-01       9.89770e-06       1.75540e-06       4.49076e-14       1.74340e-08       5.17266e-01       3.04809e-01       5.17266e-01      
 8.55000e-01       1.01695e-05       1.84570e-06       4.49843e-14       1.82558e-08       5.17266e-01       3.12114e-01       5.17266e-01      
 8.64000e-01       1.04404e-05       1.93845e-06       4.50579e-14       1.91073e-08       5.17266e-01       3.19444e-01       5.17266e-01      
 8.73000e-01       1.07102e-05       2.03362e-06       4.51284e-14       1.99897e-08       5.17266e-01       3.26799e-01       5.17266e-01      
 8.82000e-01       1.09790e-05       2.13123e-06       4.51962e-14       2.09045e-08       5.17266e-01       3.34177e-01       5.17266e-01      
 8.91000e-01       1.12466e-05       2.23124e-06       4.52614e-14       2.18534e-08       5.17266e-01       3.41577e-01       5.17266e-01      
 9.00000e-01       1.15131e-05       2.33366e-06       4.53242e-14       2.28379e-08       5.17266e-01       3.48998e-01       5.17266e-01      
 9.09000e-01       1.17784e-05       2.43848e-06       4.53848e-14       2.38600e-08       5.17266e-01       3.56439e-01       5.17266e-01      
 9.18000e-01       1.20424e-05       2.54567e-06       4.54433e-14       2.49215e-08       5.17266e-01       3.63901e-01       5.17266e-01      
 9.27000e-01       1.23052e-05       2.65524e-06       4.55000e-14       2.60246e-08       5.17266e-01       3.71381e-01       5.17266e-01      
 9.36000e-01       1.25666e-05       2.76716e-06       4.55548e-14       2.71716e-08       5.17266e-01       3.78880e-01       5.17266e-01      
 9.45000e-01       1.28266e-05       2.88143e-06       4.56079e-14       2.83649e-08       5.17266e-01       3.86397e-01       5.17266e-01      
 9.54000e-01       1.30852e-05       2.99803e-06       4.56595e-14       2.96073e-08       5.17266e-01       3.93932e-01       5.17266e-01      
 9.63000e-01       1.33423e-05       3.11696e-06       4.57097e-14       3.09016e-08       5.17266e-01       4.01484e-01       5.17266e-01      
 9.72000e-01       1.35980e-05       3.23819e-06       4.57585e-14       3.22510e-08       5.17266e-01       4.09052e-01       5.17266e-01      
 9.81000e-01       1.38521e-05       3.36172e-06       4.58060e-14       3.36589e-08       5.17266e-01       4.16637e-01       5.17266e-01      
 9.90000e-01       1.41047e-05       3.48753e-06       4.58524e-14       3.51290e-08       5.17266e-01       4.24238e-01       5.17266e-01      
 9.99000e-01       1.43556e-05       3.61560e-06       4.58977e-14       3.66653e-08       5.17266e-01       4.31854e-01       5.17266e-01      
 1.00800e+00       1.46050e-05       3.74592e-06       4.59419e-14       3.82721e-08       5.17266e-01       4.39487e-01       5.17266e-01      
 1.01700e+00       1.48526e-05       3.87848e-06       4.59853e-14       3.99544e-08       5.17266e-01       4.47135e-01       5.17266e-01      
 1.02600e+00       1.50985e-05       4.01326e-06       4.60277e-14       4.17171e-08       5.17266e-01       4.54798e-01       5.17266e-01      
 1.03500e+00       1.53426e-05       4.15025e-06       4.60694e-14       4.35661e-08       5.17266e-01       4.62476e-01       5.17266e-01      
 1.04400e+00       1.55849e-05       4.28942e-06       4.61103e-14       4.55075e-08       5.17266e-01       4.70169e-01       5.17266e-01      
 1.05300e+00       1.58253e-05       4.43077e-06       4.61505e-14       4.75480e-08       5.17266e-01       4.77877e-01       5.17266e-01      
 1.06200e+00       1.60639e-05       4.57427e-06       4.61900e-14       4.96951e-08       5.17266e-01       4.85600e-01       5.17266e-01      
 1.07100e+00       1.63005e-05       4.71992e-06       4.62290e-14       5.19569e-08       5.17266e-01       4.93337e-01       5.17266e-01      
 1.08000e+00       1.65352e-05       4.86768e-06       4.62675e-14       5.43423e-08       5.17266e-01       5.01090e-01       5.17266e-01      
 1.08900e+00       1.67678e-05       5.01754e-06       4.63055e-14       5.68611e-08       5.17266e-01       5.08856e-01       5.17266e-01      
 1.09800e+00       1.69984e-05       5.16949e-06       4.63431e-14       5.95242e-08       5.17266e-01       5.16637e-01       5.17266e-01      
 1.10700e+00       1.72268e-05       5.32351e-06       4.63803e-14       6.23434e-08       5.17266e-01       5.24433e-01       5.17266e-01      
 1.11600e+00       1.74531e-05       5.47957e-06       4.64172e-14       6.53319e-08       5.17266e-01       5.32243e-01       5.17266e-01      
 1.12500e+00       1.76771e-05       5.63766e-06       4.64537e-14       6.85041e-08       5.17266e-01       5.40068e-01       5.17266e-01      
 1.13400e+00       1.78990e-05       5.79775e-06       4.64901e-14       7.18761e-08       5.17266e-01       5.47907e-01       5.17266e-01      
 1.14300e+00       1.81185e-05       5.95983e-06       4.65263e-14       7.54658e-08       5.17266e-01       5.55760e-01       5.17266e-01      
 1.15200e+00       1.83356e-05       6.12387e-06       4.65623e-14       7.92928e-08       5.17266e-01       5.63628e-01       5.17266e-01      
 1.16100e+00       1.85503e-05       6.28986e-06       4.65982e-14       8.33791e-08       5.17266e-01       5.71510e-01       5.17266e-01      
 1.17000e+00       1.87626e-05       6.45777e-06       4.66341e-14       8.77490e-08       5.17266e-01       5.79407e-01       5.17266e-01      
 1.17900e+00       1.89723e-05       6.62758e-06       4.66700e-14       9.24298e-08       5.17266e-01       5.87318e-01       5.17266e-01      
 1.18800e+00       1.91794e-05       6.79927e-06       4.67060e-14       9.74516e-08       5.17266e-01       5.95244e-01       5.17266e-01      
 1.19700e+00       1.93839e-05       6.97280e-06       4.67420e-14       1.02848e-07       5.17266e-01       6.03184e-01       5.17266e-01      
 1.20600e+00       1.95857e-05       7.14817e-06       4.67782e-14       1.08658e-07       5.17266e-01       6.11139e-01       5.17266e-01      
 1.21500e+00       1.97846e-05       7.32534e-06       4.68146e-14       1.14922e-07       5.17266e-01       6.19109e-01       5.17266e-01      
