
dc (V)            getData("M0:gm    getData("M0:id    getData("M0:cg    getData("M0:gd    getData("M0:vt    getData("M0:vd    getData("M0:vt

 0.00000e+00       1.12181e-12       5.58186e-14       1.45890e-14       8.25105e-16       5.16126e-01       4.00479e-02       5.16126e-01      
 9.00000e-03       1.50461e-12       6.75533e-14       1.45221e-14       1.10676e-15       5.16126e-01       4.00480e-02       5.16126e-01      
 1.80000e-02       2.01795e-12       8.32920e-14       1.44574e-14       1.48452e-15       5.16126e-01       4.00480e-02       5.16126e-01      
 2.70000e-02       2.70629e-12       1.04400e-13       1.43950e-14       1.99114e-15       5.16126e-01       4.00480e-02       5.16126e-01      
 3.60000e-02       3.62922e-12       1.32707e-13       1.43350e-14       2.67056e-15       5.16126e-01       4.00481e-02       5.16126e-01      
 4.50000e-02       4.86656e-12       1.70666e-13       1.42774e-14       3.58165e-15       5.16126e-01       4.00481e-02       5.16126e-01      
 5.40000e-02       6.52525e-12       2.21566e-13       1.42225e-14       4.80332e-15       5.16126e-01       4.00482e-02       5.16126e-01      
 6.30000e-02       8.74844e-12       2.89810e-13       1.41703e-14       6.44128e-15       5.16126e-01       4.00483e-02       5.16126e-01      
 7.20000e-02       1.17278e-11       3.81300e-13       1.41211e-14       8.63718e-15       5.16126e-01       4.00484e-02       5.16126e-01      
 8.10000e-02       1.57198e-11       5.03939e-13       1.40753e-14       1.15807e-14       5.16126e-01       4.00486e-02       5.16126e-01      
 9.00000e-02       2.10675e-11       6.68312e-13       1.40330e-14       1.55259e-14       5.16126e-01       4.00488e-02       5.16126e-01      
 9.90000e-02       2.82293e-11       8.88581e-13       1.39949e-14       2.08125e-14       5.16126e-01       4.00492e-02       5.16126e-01      
 1.08000e-01       3.78179e-11       1.18370e-12       1.39613e-14       2.78956e-14       5.16126e-01       4.00496e-02       5.16126e-01      
 1.17000e-01       5.06510e-11       1.57901e-12       1.39331e-14       3.73832e-14       5.16126e-01       4.00502e-02       5.16126e-01      
 1.26000e-01       6.78193e-11       2.10839e-12       1.39110e-14       5.00882e-14       5.16126e-01       4.00509e-02       5.16126e-01      
 1.35000e-01       9.07759e-11       2.81707e-12       1.38961e-14       6.70962e-14       5.16126e-01       4.00520e-02       5.16126e-01      
 1.44000e-01       1.21455e-10       3.76546e-12       1.38894e-14       8.98558e-14       5.16126e-01       4.00534e-02       5.16126e-01      
 1.53000e-01       1.62425e-10       5.03405e-12       1.38925e-14       1.20299e-13       5.16126e-01       4.00552e-02       5.16126e-01      
 1.62000e-01       2.17080e-10       6.73004e-12       1.39064e-14       1.60995e-13       5.16126e-01       4.00577e-02       5.16126e-01      
 1.71000e-01       2.89932e-10       8.99594e-12       1.39337e-14       2.15362e-13       5.16126e-01       4.00610e-02       5.16126e-01      
 1.80000e-01       3.86930e-10       1.20211e-11       1.39770e-14       2.87937e-13       5.16126e-01       4.00654e-02       5.16126e-01      
 1.89000e-01       5.15904e-10       1.60564e-11       1.40389e-14       3.84732e-13       5.16126e-01       4.00713e-02       5.16126e-01      
 1.98000e-01       6.87130e-10       2.14338e-11       1.41226e-14       5.13693e-13       5.16126e-01       4.00791e-02       5.16126e-01      
 2.07000e-01       9.14038e-10       2.85914e-11       1.42316e-14       6.85298e-13       5.16126e-01       4.00895e-02       5.16126e-01      
 2.16000e-01       1.21410e-09       3.81054e-11       1.43700e-14       9.13318e-13       5.16126e-01       4.01033e-02       5.16126e-01      
 2.25000e-01       1.60992e-09       5.07318e-11       1.45421e-14       1.21578e-12       5.16126e-01       4.01217e-02       5.16126e-01      
 2.34000e-01       2.13058e-09       6.74577e-11       1.47525e-14       1.61619e-12       5.16126e-01       4.01459e-02       5.16126e-01      
 2.43000e-01       2.81321e-09       8.95672e-11       1.50061e-14       2.14503e-12       5.16126e-01       4.01780e-02       5.16126e-01      
 2.52000e-01       3.70481e-09       1.18721e-10       1.53079e-14       2.84159e-12       5.16126e-01       4.02202e-02       5.16126e-01      
 2.61000e-01       4.86435e-09       1.57056e-10       1.56628e-14       3.75617e-12       5.16126e-01       4.02755e-02       5.16126e-01      
 2.70000e-01       6.36500e-09       2.07301e-10       1.60755e-14       4.95260e-12       5.16126e-01       4.03478e-02       5.16126e-01      
 2.79000e-01       8.29644e-09       2.72917e-10       1.65504e-14       6.51116e-12       5.16126e-01       4.04418e-02       5.16126e-01      
 2.88000e-01       1.07671e-08       3.58253e-10       1.70911e-14       8.53168e-12       5.16126e-01       4.05634e-02       5.16126e-01      
 2.97000e-01       1.39062e-08       4.68728e-10       1.77007e-14       1.11367e-11       5.16126e-01       4.07198e-02       5.16126e-01      
 3.06000e-01       1.78649e-08       6.11021e-10       1.83810e-14       1.44746e-11       5.16126e-01       4.09196e-02       5.16126e-01      
 3.15000e-01       2.28172e-08       7.93275e-10       1.91329e-14       1.87221e-11       5.16126e-01       4.11727e-02       5.16126e-01      
 3.24000e-01       2.89593e-08       1.02530e-09       1.99563e-14       2.40857e-11       5.16126e-01       4.14906e-02       5.16126e-01      
 3.33000e-01       3.65078e-08       1.31876e-09       2.08496e-14       3.08021e-11       5.16126e-01       4.18862e-02       5.16126e-01      
 3.42000e-01       4.56963e-08       1.68736e-09       2.18102e-14       3.91368e-11       5.16126e-01       4.23731e-02       5.16126e-01      
 3.51000e-01       5.67712e-08       2.14695e-09       2.28340e-14       4.93804e-11       5.16126e-01       4.29659e-02       5.16126e-01      
 3.60000e-01       6.99852e-08       2.71566e-09       2.39161e-14       6.18431e-11       5.16126e-01       4.36790e-02       5.16126e-01      
 3.69000e-01       8.55917e-08       3.41386e-09       2.50503e-14       7.68479e-11       5.16126e-01       4.45263e-02       5.16126e-01      
 3.78000e-01       1.03838e-07       4.26423e-09       2.62297e-14       9.47226e-11       5.16126e-01       4.55205e-02       5.16126e-01      
 3.87000e-01       1.24963e-07       5.29159e-09       2.74466e-14       1.15792e-10       5.16126e-01       4.66724e-02       5.16126e-01      
 3.96000e-01       1.49194e-07       6.52289e-09       2.86928e-14       1.40370e-10       5.16126e-01       4.79908e-02       5.16126e-01      
 4.05000e-01       1.76748e-07       7.98705e-09       2.99596e-14       1.68758e-10       5.16126e-01       4.94822e-02       5.16126e-01      
 4.14000e-01       2.07844e-07       9.71497e-09       3.12386e-14       2.01241e-10       5.16126e-01       5.11508e-02       5.16126e-01      
 4.23000e-01       2.42708e-07       1.17395e-08       3.25212e-14       2.38089e-10       5.16126e-01       5.29990e-02       5.16126e-01      
 4.32000e-01       2.81584e-07       1.40958e-08       3.37991e-14       2.79561e-10       5.16126e-01       5.50276e-02       5.16126e-01      
 4.41000e-01       3.24746e-07       1.68209e-08       3.50645e-14       3.25911e-10       5.16126e-01       5.72365e-02       5.16126e-01      
 4.50000e-01       3.72498e-07       1.99549e-08       3.63103e-14       3.77393e-10       5.16126e-01       5.96251e-02       5.16126e-01      
 4.59000e-01       4.25179e-07       2.35407e-08       3.75300e-14       4.34264e-10       5.16126e-01       6.21927e-02       5.16126e-01      
 4.68000e-01       4.83156e-07       2.76241e-08       3.87179e-14       4.96794e-10       5.16126e-01       6.49384e-02       5.16126e-01      
 4.77000e-01       5.46815e-07       3.22545e-08       3.98693e-14       5.65263e-10       5.16126e-01       6.78618e-02       5.16126e-01      
 4.86000e-01       6.16544e-07       3.74849e-08       4.09801e-14       6.39961e-10       5.16126e-01       7.09627e-02       5.16126e-01      
 4.95000e-01       6.92724e-07       4.33717e-08       4.20473e-14       7.21192e-10       5.16126e-01       7.42410e-02       5.16126e-01      
 5.04000e-01       7.75708e-07       4.99744e-08       4.30686e-14       8.09266e-10       5.16126e-01       7.76968e-02       5.16126e-01      
 5.13000e-01       8.65810e-07       5.73558e-08       4.40425e-14       9.04497e-10       5.16126e-01       8.13299e-02       5.16126e-01      
 5.22000e-01       9.63289e-07       6.55811e-08       4.49681e-14       1.00720e-09       5.16126e-01       8.51398e-02       5.16126e-01      
 5.31000e-01       1.06834e-06       7.47177e-08       4.58453e-14       1.11769e-09       5.16126e-01       8.91260e-02       5.16126e-01      
 5.40000e-01       1.18110e-06       8.48344e-08       4.66742e-14       1.23626e-09       5.16126e-01       9.32869e-02       5.16126e-01      
 5.49000e-01       1.30160e-06       9.60007e-08       4.74559e-14       1.36321e-09       5.16126e-01       9.76208e-02       5.16126e-01      
 5.58000e-01       1.42983e-06       1.08286e-07       4.81913e-14       1.49882e-09       5.16126e-01       1.02125e-01       5.16126e-01      
 5.67000e-01       1.56567e-06       1.21760e-07       4.88819e-14       1.64334e-09       5.16126e-01       1.06796e-01       5.16126e-01      
 5.76000e-01       1.70896e-06       1.36491e-07       4.95295e-14       1.79701e-09       5.16126e-01       1.11631e-01       5.16126e-01      
 5.85000e-01       1.85945e-06       1.52543e-07       5.01360e-14       1.96008e-09       5.16126e-01       1.16625e-01       5.16126e-01      
 5.94000e-01       2.01684e-06       1.69982e-07       5.07033e-14       2.13273e-09       5.16126e-01       1.21772e-01       5.16126e-01      
 6.03000e-01       2.18078e-06       1.88866e-07       5.12334e-14       2.31518e-09       5.16126e-01       1.27067e-01       5.16126e-01      
 6.12000e-01       2.35088e-06       2.09254e-07       5.17286e-14       2.50759e-09       5.16126e-01       1.32505e-01       5.16126e-01      
 6.21000e-01       2.52673e-06       2.31199e-07       5.21908e-14       2.71013e-09       5.16126e-01       1.38080e-01       5.16126e-01      
 6.30000e-01       2.70789e-06       2.54751e-07       5.26222e-14       2.92297e-09       5.16126e-01       1.43784e-01       5.16126e-01      
 6.39000e-01       2.89391e-06       2.79956e-07       5.30247e-14       3.14626e-09       5.16126e-01       1.49612e-01       5.16126e-01      
 6.48000e-01       3.08435e-06       3.06855e-07       5.34003e-14       3.38015e-09       5.16126e-01       1.55556e-01       5.16126e-01      
 6.57000e-01       3.27875e-06       3.35486e-07       5.37509e-14       3.62479e-09       5.16126e-01       1.61611e-01       5.16126e-01      
 6.66000e-01       3.47669e-06       3.65883e-07       5.40782e-14       3.88033e-09       5.16126e-01       1.67770e-01       5.16126e-01      
 6.75000e-01       3.67776e-06       3.98076e-07       5.43839e-14       4.14694e-09       5.16126e-01       1.74027e-01       5.16126e-01      
 6.84000e-01       3.88156e-06       4.32091e-07       5.46697e-14       4.42478e-09       5.16126e-01       1.80376e-01       5.16126e-01      
 6.93000e-01       4.08772e-06       4.67951e-07       5.49369e-14       4.71405e-09       5.16126e-01       1.86810e-01       5.16126e-01      
 7.02000e-01       4.29590e-06       5.05676e-07       5.51871e-14       5.01492e-09       5.16126e-01       1.93325e-01       5.16126e-01      
 7.11000e-01       4.50577e-06       5.45282e-07       5.54215e-14       5.32763e-09       5.16126e-01       1.99916e-01       5.16126e-01      
 7.20000e-01       4.71705e-06       5.86784e-07       5.56413e-14       5.65241e-09       5.16126e-01       2.06576e-01       5.16126e-01      
 7.29000e-01       4.92947e-06       6.30193e-07       5.58477e-14       5.98951e-09       5.16126e-01       2.13302e-01       5.16126e-01      
 7.38000e-01       5.14279e-06       6.75517e-07       5.60417e-14       6.33920e-09       5.16126e-01       2.20089e-01       5.16126e-01      
 7.47000e-01       5.35678e-06       7.22765e-07       5.62242e-14       6.70181e-09       5.16126e-01       2.26932e-01       5.16126e-01      
 7.56000e-01       5.57126e-06       7.71941e-07       5.63962e-14       7.07767e-09       5.16126e-01       2.33830e-01       5.16126e-01      
 7.65000e-01       5.78604e-06       8.23048e-07       5.65584e-14       7.46714e-09       5.16126e-01       2.40776e-01       5.16126e-01      
 7.74000e-01       6.00098e-06       8.76090e-07       5.67117e-14       7.87063e-09       5.16126e-01       2.47770e-01       5.16126e-01      
 7.83000e-01       6.21594e-06       9.31066e-07       5.68567e-14       8.28857e-09       5.16126e-01       2.54806e-01       5.16126e-01      
 7.92000e-01       6.43078e-06       9.87977e-07       5.69941e-14       8.72143e-09       5.16126e-01       2.61884e-01       5.16126e-01      
 8.01000e-01       6.64541e-06       1.04682e-06       5.71244e-14       9.16975e-09       5.16126e-01       2.68999e-01       5.16126e-01      
 8.10000e-01       6.85973e-06       1.10759e-06       5.72482e-14       9.63406e-09       5.16126e-01       2.76151e-01       5.16126e-01      
 8.19000e-01       7.07364e-06       1.17029e-06       5.73660e-14       1.01150e-08       5.16126e-01       2.83336e-01       5.16126e-01      
 8.28000e-01       7.28708e-06       1.23492e-06       5.74782e-14       1.06132e-08       5.16126e-01       2.90553e-01       5.16126e-01      
 8.37000e-01       7.49997e-06       1.30146e-06       5.75853e-14       1.11294e-08       5.16126e-01       2.97800e-01       5.16126e-01      
 8.46000e-01       7.71226e-06       1.36991e-06       5.76877e-14       1.16643e-08       5.16126e-01       3.05075e-01       5.16126e-01      
 8.55000e-01       7.92388e-06       1.44028e-06       5.77856e-14       1.22188e-08       5.16126e-01       3.12378e-01       5.16126e-01      
 8.64000e-01       8.13480e-06       1.51254e-06       5.78794e-14       1.27937e-08       5.16126e-01       3.19706e-01       5.16126e-01      
 8.73000e-01       8.34495e-06       1.58670e-06       5.79694e-14       1.33901e-08       5.16126e-01       3.27058e-01       5.16126e-01      
 8.82000e-01       8.55431e-06       1.66275e-06       5.80560e-14       1.40090e-08       5.16126e-01       3.34434e-01       5.16126e-01      
 8.91000e-01       8.76282e-06       1.74068e-06       5.81392e-14       1.46515e-08       5.16126e-01       3.41833e-01       5.16126e-01      
 9.00000e-01       8.97046e-06       1.82048e-06       5.82194e-14       1.53188e-08       5.16126e-01       3.49253e-01       5.16126e-01      
 9.09000e-01       9.17718e-06       1.90214e-06       5.82968e-14       1.60123e-08       5.16126e-01       3.56693e-01       5.16126e-01      
 9.18000e-01       9.38296e-06       1.98566e-06       5.83716e-14       1.67333e-08       5.16126e-01       3.64154e-01       5.16126e-01      
 9.27000e-01       9.58776e-06       2.07103e-06       5.84439e-14       1.74835e-08       5.16126e-01       3.71635e-01       5.16126e-01      
 9.36000e-01       9.79156e-06       2.15824e-06       5.85139e-14       1.82644e-08       5.16126e-01       3.79134e-01       5.16126e-01      
 9.45000e-01       9.99430e-06       2.24728e-06       5.85818e-14       1.90779e-08       5.16126e-01       3.86651e-01       5.16126e-01      
 9.54000e-01       1.01960e-05       2.33813e-06       5.86478e-14       1.99260e-08       5.16126e-01       3.94186e-01       5.16126e-01      
 9.63000e-01       1.03966e-05       2.43080e-06       5.87119e-14       2.08107e-08       5.16126e-01       4.01739e-01       5.16126e-01      
 9.72000e-01       1.05960e-05       2.52527e-06       5.87742e-14       2.17345e-08       5.16126e-01       4.09309e-01       5.16126e-01      
 9.81000e-01       1.07943e-05       2.62153e-06       5.88350e-14       2.26996e-08       5.16126e-01       4.16896e-01       5.16126e-01      
 9.90000e-01       1.09914e-05       2.71956e-06       5.88943e-14       2.37090e-08       5.16126e-01       4.24499e-01       5.16126e-01      
 9.99000e-01       1.11872e-05       2.81937e-06       5.89522e-14       2.47656e-08       5.16126e-01       4.32118e-01       5.16126e-01      
 1.00800e+00       1.13818e-05       2.92093e-06       5.90088e-14       2.58725e-08       5.16126e-01       4.39754e-01       5.16126e-01      
 1.01700e+00       1.15752e-05       3.02424e-06       5.90642e-14       2.70334e-08       5.16126e-01       4.47405e-01       5.16126e-01      
 1.02600e+00       1.17672e-05       3.12928e-06       5.91185e-14       2.82521e-08       5.16126e-01       4.55072e-01       5.16126e-01      
 1.03500e+00       1.19578e-05       3.23604e-06       5.91718e-14       2.95327e-08       5.16126e-01       4.62754e-01       5.16126e-01      
 1.04400e+00       1.21471e-05       3.34451e-06       5.92241e-14       3.08799e-08       5.16126e-01       4.70452e-01       5.16126e-01      
 1.05300e+00       1.23349e-05       3.45468e-06       5.92755e-14       3.22987e-08       5.16126e-01       4.78165e-01       5.16126e-01      
 1.06200e+00       1.25214e-05       3.56654e-06       5.93262e-14       3.37948e-08       5.16126e-01       4.85893e-01       5.16126e-01      
 1.07100e+00       1.27063e-05       3.68006e-06       5.93761e-14       3.53741e-08       5.16126e-01       4.93636e-01       5.16126e-01      
 1.08000e+00       1.28897e-05       3.79525e-06       5.94253e-14       3.70433e-08       5.16126e-01       5.01394e-01       5.16126e-01      
 1.08900e+00       1.30716e-05       3.91207e-06       5.94739e-14       3.88099e-08       5.16126e-01       5.09168e-01       5.16126e-01      
 1.09800e+00       1.32518e-05       4.03053e-06       5.95220e-14       4.06820e-08       5.16126e-01       5.16956e-01       5.16126e-01      
 1.10700e+00       1.34305e-05       4.15060e-06       5.95696e-14       4.26685e-08       5.16126e-01       5.24758e-01       5.16126e-01      
 1.11600e+00       1.36075e-05       4.27228e-06       5.96167e-14       4.47794e-08       5.16126e-01       5.32576e-01       5.16126e-01      
 1.12500e+00       1.37828e-05       4.39553e-06       5.96635e-14       4.70256e-08       5.16126e-01       5.40409e-01       5.16126e-01      
 1.13400e+00       1.39564e-05       4.52036e-06       5.97100e-14       4.94194e-08       5.16126e-01       5.48256e-01       5.16126e-01      
 1.14300e+00       1.41282e-05       4.64674e-06       5.97563e-14       5.19743e-08       5.16126e-01       5.56118e-01       5.16126e-01      
 1.15200e+00       1.42981e-05       4.77466e-06       5.98024e-14       5.47053e-08       5.16126e-01       5.63995e-01       5.16126e-01      
 1.16100e+00       1.44663e-05       4.90410e-06       5.98483e-14       5.76291e-08       5.16126e-01       5.71887e-01       5.16126e-01      
 1.17000e+00       1.46325e-05       5.03505e-06       5.98942e-14       6.07644e-08       5.16126e-01       5.79794e-01       5.16126e-01      
 1.17900e+00       1.47968e-05       5.16748e-06       5.99401e-14       6.41321e-08       5.16126e-01       5.87716e-01       5.16126e-01      
 1.18800e+00       1.49591e-05       5.30139e-06       5.99860e-14       6.77552e-08       5.16126e-01       5.95652e-01       5.16126e-01      
 1.19700e+00       1.51193e-05       5.43674e-06       6.00321e-14       7.16599e-08       5.16126e-01       6.03603e-01       5.16126e-01      
 1.20600e+00       1.52775e-05       5.57353e-06       6.00783e-14       7.58753e-08       5.16126e-01       6.11570e-01       5.16126e-01      
 1.21500e+00       1.54335e-05       5.71173e-06       6.01248e-14       8.04339e-08       5.16126e-01       6.19551e-01       5.16126e-01      
