
dc (V)            getData("M0:gm    getData("M0:id    getData("M0:cg    getData("M0:gd    getData("M0:vt    getData("M0:vd    getData("M0:vt

 0.00000e+00       1.80837e-12       7.45245e-14       1.97557e-15       2.56991e-15       4.89778e-01       3.99975e-02       4.89778e-01      
 9.00000e-03       2.42321e-12       9.25500e-14       1.96775e-15       3.44408e-15       4.89778e-01       3.99976e-02       4.89778e-01      
 1.80000e-02       3.24690e-12       1.17102e-13       1.96025e-15       4.61542e-15       4.89778e-01       3.99976e-02       4.89778e-01      
 2.70000e-02       4.35030e-12       1.50356e-13       1.95309e-15       6.18487e-15       4.89778e-01       3.99976e-02       4.89778e-01      
 3.60000e-02       5.82823e-12       1.95227e-13       1.94630e-15       8.28757e-15       4.89778e-01       3.99977e-02       4.89778e-01      
 4.50000e-02       7.80755e-12       2.55625e-13       1.93989e-15       1.11045e-14       4.89778e-01       3.99978e-02       4.89778e-01      
 5.40000e-02       1.04580e-11       3.36783e-13       1.93393e-15       1.48778e-14       4.89778e-01       3.99979e-02       4.89778e-01      
 6.30000e-02       1.40065e-11       4.45710e-13       1.92843e-15       1.99318e-14       4.89778e-01       3.99981e-02       4.89778e-01      
 7.20000e-02       1.87564e-11       5.91786e-13       1.92348e-15       2.67001e-14       4.89778e-01       3.99984e-02       4.89778e-01      
 8.10000e-02       2.51130e-11       7.87559e-13       1.91914e-15       3.57628e-14       4.89778e-01       3.99987e-02       4.89778e-01      
 9.00000e-02       3.36174e-11       1.04981e-12       1.91549e-15       4.78955e-14       4.89778e-01       3.99991e-02       4.89778e-01      
 9.90000e-02       4.49915e-11       1.40097e-12       1.91265e-15       6.41347e-14       4.89778e-01       3.99996e-02       4.89778e-01      
 1.08000e-01       6.01981e-11       1.87099e-12       1.91075e-15       8.58648e-14       4.89778e-01       4.00004e-02       4.89778e-01      
 1.17000e-01       8.05194e-11       2.49989e-12       1.90995e-15       1.14934e-13       4.89778e-01       4.00014e-02       4.89778e-01      
 1.26000e-01       1.07658e-10       3.34101e-12       1.91038e-15       1.53806e-13       4.89778e-01       4.00027e-02       4.89778e-01      
 1.35000e-01       1.43875e-10       4.46542e-12       1.91228e-15       2.05765e-13       4.89778e-01       4.00045e-02       4.89778e-01      
 1.44000e-01       1.92177e-10       5.96777e-12       1.91595e-15       2.75178e-13       4.89778e-01       4.00069e-02       4.89778e-01      
 1.53000e-01       2.56539e-10       7.97393e-12       1.92173e-15       3.67856e-13       4.89778e-01       4.00101e-02       4.89778e-01      
 1.62000e-01       3.42216e-10       1.06511e-11       1.92996e-15       4.91511e-13       4.89778e-01       4.00143e-02       4.89778e-01      
 1.71000e-01       4.56131e-10       1.42208e-11       1.94107e-15       6.56362e-13       4.89778e-01       4.00199e-02       4.89778e-01      
 1.80000e-01       6.07383e-10       1.89766e-11       1.95552e-15       8.75923e-13       4.89778e-01       4.00275e-02       4.89778e-01      
 1.89000e-01       8.07885e-10       2.53057e-11       1.97383e-15       1.16802e-12       4.89778e-01       4.00375e-02       4.89778e-01      
 1.98000e-01       1.07318e-09       3.37186e-11       1.99657e-15       1.55611e-12       4.89778e-01       4.00508e-02       4.89778e-01      
 2.07000e-01       1.42344e-09       4.48856e-11       2.02435e-15       2.07093e-12       4.89778e-01       4.00684e-02       4.89778e-01      
 2.16000e-01       1.88472e-09       5.96839e-11       2.05782e-15       2.75262e-12       4.89778e-01       4.00918e-02       4.89778e-01      
 2.25000e-01       2.49045e-09       7.92577e-11       2.09763e-15       3.65334e-12       4.89778e-01       4.01227e-02       4.89778e-01      
 2.34000e-01       3.28323e-09       1.05092e-10       2.14443e-15       4.84047e-12       4.89778e-01       4.01633e-02       4.89778e-01      
 2.43000e-01       4.31689e-09       1.39103e-10       2.19883e-15       6.40052e-12       4.89778e-01       4.02167e-02       4.89778e-01      
 2.52000e-01       5.65882e-09       1.83752e-10       2.26141e-15       8.44365e-12       4.89778e-01       4.02867e-02       4.89778e-01      
 2.61000e-01       7.39251e-09       2.42179e-10       2.33265e-15       1.11089e-11       4.89778e-01       4.03778e-02       4.89778e-01      
 2.70000e-01       9.62019e-09       3.18355e-10       2.41295e-15       1.45699e-11       4.89778e-01       4.04961e-02       4.89778e-01      
 2.79000e-01       1.24654e-08       4.17267e-10       2.50256e-15       1.90406e-11       4.89778e-01       4.06487e-02       4.89778e-01      
 2.88000e-01       1.60753e-08       5.45120e-10       2.60161e-15       2.47814e-11       4.89778e-01       4.08445e-02       4.89778e-01      
 2.97000e-01       2.06225e-08       7.09556e-10       2.71007e-15       3.21033e-11       4.89778e-01       4.10937e-02       4.89778e-01      
 3.06000e-01       2.63057e-08       9.19889e-10       2.82776e-15       4.13711e-11       4.89778e-01       4.14086e-02       4.89778e-01      
 3.15000e-01       3.33496e-08       1.18734e-09       2.95432e-15       5.30038e-11       4.89778e-01       4.18027e-02       4.89778e-01      
 3.24000e-01       4.20031e-08       1.52526e-09       3.08925e-15       6.74699e-11       4.89778e-01       4.22914e-02       4.89778e-01      
 3.33000e-01       5.25352e-08       1.94935e-09       3.23188e-15       8.52802e-11       4.89778e-01       4.28907e-02       4.89778e-01      
 3.42000e-01       6.52292e-08       2.47778e-09       3.38143e-15       1.06973e-10       4.89778e-01       4.36173e-02       4.89778e-01      
 3.51000e-01       8.03747e-08       3.13132e-09       3.53699e-15       1.33098e-10       4.89778e-01       4.44878e-02       4.89778e-01      
 3.60000e-01       9.82583e-08       3.93334e-09       3.69755e-15       1.64195e-10       4.89778e-01       4.55177e-02       4.89778e-01      
 3.69000e-01       1.19154e-07       4.90973e-09       3.86203e-15       2.00769e-10       4.89778e-01       4.67206e-02       4.89778e-01      
 3.78000e-01       1.43313e-07       6.08877e-09       4.02931e-15       2.43276e-10       4.89778e-01       4.81079e-02       4.89778e-01      
 3.87000e-01       1.70964e-07       7.50087e-09       4.19827e-15       2.92105e-10       4.89778e-01       4.96882e-02       4.89778e-01      
 3.96000e-01       2.02306e-07       9.17840e-09       4.36777e-15       3.47570e-10       4.89778e-01       5.14670e-02       4.89778e-01      
 4.05000e-01       2.37521e-07       1.11554e-08       4.53673e-15       4.09912e-10       4.89778e-01       5.34474e-02       4.89778e-01      
 4.14000e-01       2.76780e-07       1.34675e-08       4.70413e-15       4.79303e-10       4.89778e-01       5.56296e-02       4.89778e-01      
 4.23000e-01       3.20256e-07       1.61520e-08       4.86900e-15       5.55862e-10       4.89778e-01       5.80123e-02       4.89778e-01      
 4.32000e-01       3.68136e-07       1.92475e-08       5.03050e-15       6.39665e-10       4.89778e-01       6.05930e-02       4.89778e-01      
 4.41000e-01       4.20627e-07       2.27946e-08       5.18786e-15       7.30767e-10       4.89778e-01       6.33683e-02       4.89778e-01      
 4.50000e-01       4.77957e-07       2.68359e-08       5.34046e-15       8.29207e-10       4.89778e-01       6.63348e-02       4.89778e-01      
 4.59000e-01       5.40372e-07       3.14160e-08       5.48775e-15       9.35028e-10       4.89778e-01       6.94891e-02       4.89778e-01      
 4.68000e-01       6.08126e-07       3.65819e-08       5.62932e-15       1.04827e-09       4.89778e-01       7.28281e-02       4.89778e-01      
 4.77000e-01       6.81469e-07       4.23826e-08       5.76485e-15       1.16899e-09       4.89778e-01       7.63489e-02       4.89778e-01      
 4.86000e-01       7.60634e-07       4.88696e-08       5.89415e-15       1.29724e-09       4.89778e-01       8.00491e-02       4.89778e-01      
 4.95000e-01       8.45821e-07       5.60962e-08       6.01708e-15       1.43307e-09       4.89778e-01       8.39262e-02       4.89778e-01      
 5.04000e-01       9.37188e-07       6.41174e-08       6.13362e-15       1.57656e-09       4.89778e-01       8.79779e-02       4.89778e-01      
 5.13000e-01       1.03484e-06       7.29893e-08       6.24380e-15       1.72773e-09       4.89778e-01       9.22016e-02       4.89778e-01      
 5.22000e-01       1.13883e-06       8.27686e-08       6.34771e-15       1.88665e-09       4.89778e-01       9.65947e-02       4.89778e-01      
 5.31000e-01       1.24913e-06       9.35125e-08       6.44550e-15       2.05333e-09       4.89778e-01       1.01154e-01       4.89778e-01      
 5.40000e-01       1.36567e-06       1.05277e-07       6.53736e-15       2.22778e-09       4.89778e-01       1.05876e-01       4.89778e-01      
 5.49000e-01       1.48831e-06       1.18119e-07       6.62352e-15       2.41000e-09       4.89778e-01       1.10756e-01       4.89778e-01      
 5.58000e-01       1.61685e-06       1.32091e-07       6.70421e-15       2.59996e-09       4.89778e-01       1.15791e-01       4.89778e-01      
 5.67000e-01       1.75106e-06       1.47245e-07       6.77969e-15       2.79761e-09       4.89778e-01       1.20975e-01       4.89778e-01      
 5.76000e-01       1.89064e-06       1.63632e-07       6.85025e-15       3.00289e-09       4.89778e-01       1.26303e-01       4.89778e-01      
 5.85000e-01       2.03528e-06       1.81299e-07       6.91614e-15       3.21571e-09       4.89778e-01       1.31770e-01       4.89778e-01      
 5.94000e-01       2.18463e-06       2.00289e-07       6.97765e-15       3.43599e-09       4.89778e-01       1.37370e-01       4.89778e-01      
 6.03000e-01       2.33832e-06       2.20642e-07       7.03504e-15       3.66361e-09       4.89778e-01       1.43096e-01       4.89778e-01      
 6.12000e-01       2.49600e-06       2.42397e-07       7.08859e-15       3.89845e-09       4.89778e-01       1.48942e-01       4.89778e-01      
 6.21000e-01       2.65728e-06       2.65588e-07       7.13855e-15       4.14040e-09       4.89778e-01       1.54904e-01       4.89778e-01      
 6.30000e-01       2.82180e-06       2.90245e-07       7.18517e-15       4.38932e-09       4.89778e-01       1.60973e-01       4.89778e-01      
 6.39000e-01       2.98919e-06       3.16396e-07       7.22868e-15       4.64508e-09       4.89778e-01       1.67145e-01       4.89778e-01      
 6.48000e-01       3.15910e-06       3.44065e-07       7.26931e-15       4.90754e-09       4.89778e-01       1.73412e-01       4.89778e-01      
 6.57000e-01       3.33122e-06       3.73274e-07       7.30726e-15       5.17658e-09       4.89778e-01       1.79771e-01       4.89778e-01      
 6.66000e-01       3.50523e-06       4.04040e-07       7.34274e-15       5.45205e-09       4.89778e-01       1.86214e-01       4.89778e-01      
 6.75000e-01       3.68083e-06       4.36379e-07       7.37593e-15       5.73384e-09       4.89778e-01       1.92737e-01       4.89778e-01      
 6.84000e-01       3.85777e-06       4.70305e-07       7.40700e-15       6.02182e-09       4.89778e-01       1.99334e-01       4.89778e-01      
 6.93000e-01       4.03580e-06       5.05828e-07       7.43612e-15       6.31588e-09       4.89778e-01       2.06001e-01       4.89778e-01      
 7.02000e-01       4.21470e-06       5.42958e-07       7.46344e-15       6.61591e-09       4.89778e-01       2.12734e-01       4.89778e-01      
 7.11000e-01       4.39425e-06       5.81701e-07       7.48909e-15       6.92180e-09       4.89778e-01       2.19527e-01       4.89778e-01      
 7.20000e-01       4.57429e-06       6.22061e-07       7.51321e-15       7.23346e-09       4.89778e-01       2.26378e-01       4.89778e-01      
 7.29000e-01       4.75464e-06       6.64044e-07       7.53591e-15       7.55080e-09       4.89778e-01       2.33282e-01       4.89778e-01      
 7.38000e-01       4.93517e-06       7.07650e-07       7.55729e-15       7.87375e-09       4.89778e-01       2.40236e-01       4.89778e-01      
 7.47000e-01       5.11573e-06       7.52881e-07       7.57747e-15       8.20223e-09       4.89778e-01       2.47236e-01       4.89778e-01      
 7.56000e-01       5.29622e-06       7.99737e-07       7.59654e-15       8.53618e-09       4.89778e-01       2.54281e-01       4.89778e-01      
 7.65000e-01       5.47653e-06       8.48216e-07       7.61457e-15       8.87553e-09       4.89778e-01       2.61367e-01       4.89778e-01      
 7.74000e-01       5.65658e-06       8.98316e-07       7.63165e-15       9.22025e-09       4.89778e-01       2.68491e-01       4.89778e-01      
 7.83000e-01       5.83628e-06       9.50036e-07       7.64785e-15       9.57029e-09       4.89778e-01       2.75652e-01       4.89778e-01      
 7.92000e-01       6.01556e-06       1.00337e-06       7.66324e-15       9.92562e-09       4.89778e-01       2.82848e-01       4.89778e-01      
 8.01000e-01       6.19436e-06       1.05832e-06       7.67787e-15       1.02862e-08       4.89778e-01       2.90076e-01       4.89778e-01      
 8.10000e-01       6.37263e-06       1.11487e-06       7.69181e-15       1.06520e-08       4.89778e-01       2.97335e-01       4.89778e-01      
 8.19000e-01       6.55032e-06       1.17302e-06       7.70510e-15       1.10231e-08       4.89778e-01       3.04623e-01       4.89778e-01      
 8.28000e-01       6.72737e-06       1.23277e-06       7.71778e-15       1.13993e-08       4.89778e-01       3.11939e-01       4.89778e-01      
 8.37000e-01       6.90377e-06       1.29411e-06       7.72991e-15       1.17808e-08       4.89778e-01       3.19281e-01       4.89778e-01      
 8.46000e-01       7.07946e-06       1.35704e-06       7.74152e-15       1.21675e-08       4.89778e-01       3.26649e-01       4.89778e-01      
 8.55000e-01       7.25442e-06       1.42154e-06       7.75265e-15       1.25594e-08       4.89778e-01       3.34041e-01       4.89778e-01      
 8.64000e-01       7.42862e-06       1.48761e-06       7.76333e-15       1.29565e-08       4.89778e-01       3.41457e-01       4.89778e-01      
 8.73000e-01       7.60203e-06       1.55525e-06       7.77359e-15       1.33589e-08       4.89778e-01       3.48895e-01       4.89778e-01      
 8.82000e-01       7.77463e-06       1.62445e-06       7.78346e-15       1.37666e-08       4.89778e-01       3.56355e-01       4.89778e-01      
 8.91000e-01       7.94639e-06       1.69519e-06       7.79296e-15       1.41796e-08       4.89778e-01       3.63836e-01       4.89778e-01      
 9.00000e-01       8.11728e-06       1.76748e-06       7.80212e-15       1.45979e-08       4.89778e-01       3.71337e-01       4.89778e-01      
 9.09000e-01       8.28730e-06       1.84130e-06       7.81096e-15       1.50216e-08       4.89778e-01       3.78858e-01       4.89778e-01      
 9.18000e-01       8.45641e-06       1.91664e-06       7.81950e-15       1.54507e-08       4.89778e-01       3.86399e-01       4.89778e-01      
 9.27000e-01       8.62460e-06       1.99351e-06       7.82776e-15       1.58852e-08       4.89778e-01       3.93959e-01       4.89778e-01      
 9.36000e-01       8.79185e-06       2.07188e-06       7.83575e-15       1.63253e-08       4.89778e-01       4.01537e-01       4.89778e-01      
 9.45000e-01       8.95814e-06       2.15175e-06       7.84350e-15       1.67709e-08       4.89778e-01       4.09134e-01       4.89778e-01      
 9.54000e-01       9.12345e-06       2.23312e-06       7.85100e-15       1.72221e-08       4.89778e-01       4.16749e-01       4.89778e-01      
 9.63000e-01       9.28775e-06       2.31597e-06       7.85829e-15       1.76791e-08       4.89778e-01       4.24381e-01       4.89778e-01      
 9.72000e-01       9.45104e-06       2.40029e-06       7.86536e-15       1.81417e-08       4.89778e-01       4.32031e-01       4.89778e-01      
 9.81000e-01       9.61329e-06       2.48608e-06       7.87224e-15       1.86102e-08       4.89778e-01       4.39698e-01       4.89778e-01      
 9.90000e-01       9.77449e-06       2.57332e-06       7.87893e-15       1.90846e-08       4.89778e-01       4.47382e-01       4.89778e-01      
 9.99000e-01       9.93461e-06       2.66201e-06       7.88544e-15       1.95649e-08       4.89778e-01       4.55083e-01       4.89778e-01      
 1.00800e+00       1.00936e-05       2.75214e-06       7.89179e-15       2.00513e-08       4.89778e-01       4.62801e-01       4.89778e-01      
 1.01700e+00       1.02516e-05       2.84369e-06       7.89797e-15       2.05438e-08       4.89778e-01       4.70536e-01       4.89778e-01      
 1.02600e+00       1.04083e-05       2.93666e-06       7.90400e-15       2.10425e-08       4.89778e-01       4.78287e-01       4.89778e-01      
 1.03500e+00       1.05640e-05       3.03103e-06       7.90988e-15       2.15475e-08       4.89778e-01       4.86055e-01       4.89778e-01      
 1.04400e+00       1.07184e-05       3.12680e-06       7.91563e-15       2.20589e-08       4.89778e-01       4.93839e-01       4.89778e-01      
 1.05300e+00       1.08717e-05       3.22395e-06       7.92124e-15       2.25769e-08       4.89778e-01       5.01640e-01       4.89778e-01      
 1.06200e+00       1.10238e-05       3.32248e-06       7.92672e-15       2.31014e-08       4.89778e-01       5.09458e-01       4.89778e-01      
 1.07100e+00       1.11747e-05       3.42237e-06       7.93209e-15       2.36327e-08       4.89778e-01       5.17292e-01       4.89778e-01      
 1.08000e+00       1.13243e-05       3.52362e-06       7.93734e-15       2.41708e-08       4.89778e-01       5.25142e-01       4.89778e-01      
 1.08900e+00       1.14727e-05       3.62620e-06       7.94248e-15       2.47159e-08       4.89778e-01       5.33009e-01       4.89778e-01      
 1.09800e+00       1.16198e-05       3.73012e-06       7.94751e-15       2.52680e-08       4.89778e-01       5.40892e-01       4.89778e-01      
 1.10700e+00       1.17656e-05       3.83535e-06       7.95244e-15       2.58274e-08       4.89778e-01       5.48792e-01       4.89778e-01      
 1.11600e+00       1.19101e-05       3.94189e-06       7.95727e-15       2.63941e-08       4.89778e-01       5.56709e-01       4.89778e-01      
 1.12500e+00       1.20533e-05       4.04972e-06       7.96201e-15       2.69683e-08       4.89778e-01       5.64642e-01       4.89778e-01      
 1.13400e+00       1.21951e-05       4.15884e-06       7.96666e-15       2.75501e-08       4.89778e-01       5.72592e-01       4.89778e-01      
 1.14300e+00       1.23356e-05       4.26923e-06       7.97122e-15       2.81397e-08       4.89778e-01       5.80558e-01       4.89778e-01      
 1.15200e+00       1.24747e-05       4.38087e-06       7.97569e-15       2.87372e-08       4.89778e-01       5.88541e-01       4.89778e-01      
 1.16100e+00       1.26125e-05       4.49376e-06       7.98008e-15       2.93429e-08       4.89778e-01       5.96541e-01       4.89778e-01      
 1.17000e+00       1.27488e-05       4.60789e-06       7.98440e-15       2.99568e-08       4.89778e-01       6.04558e-01       4.89778e-01      
 1.17900e+00       1.28837e-05       4.72323e-06       7.98864e-15       3.05791e-08       4.89778e-01       6.12592e-01       4.89778e-01      
 1.18800e+00       1.30173e-05       4.83979e-06       7.99281e-15       3.12101e-08       4.89778e-01       6.20643e-01       4.89778e-01      
 1.19700e+00       1.31493e-05       4.95754e-06       7.99691e-15       3.18499e-08       4.89778e-01       6.28711e-01       4.89778e-01      
 1.20600e+00       1.32799e-05       5.07647e-06       8.00093e-15       3.24987e-08       4.89778e-01       6.36797e-01       4.89778e-01      
 1.21500e+00       1.34091e-05       5.19657e-06       8.00490e-15       3.31567e-08       4.89778e-01       6.44899e-01       4.89778e-01      
