
dc (V)            getData("M0:gm    getData("M0:id    getData("M0:cg    getData("M0:gd    getData("M0:vt    getData("M0:vd    getData("M0:vt

 0.00000e+00       1.19633e-12       5.81056e-14       1.36095e-14       9.14155e-16       5.16413e-01       4.00685e-02       5.16413e-01      
 9.00000e-03       1.60451e-12       7.06197e-14       1.35472e-14       1.22617e-15       5.16413e-01       4.00685e-02       5.16413e-01      
 1.80000e-02       2.15188e-12       8.74032e-14       1.34870e-14       1.64464e-15       5.16413e-01       4.00686e-02       5.16413e-01      
 2.70000e-02       2.88583e-12       1.09912e-13       1.34289e-14       2.20586e-15       5.16413e-01       4.00686e-02       5.16413e-01      
 3.60000e-02       3.86989e-12       1.40096e-13       1.33730e-14       2.95846e-15       5.16413e-01       4.00686e-02       5.16413e-01      
 4.50000e-02       5.18916e-12       1.80573e-13       1.33194e-14       3.96767e-15       5.16413e-01       4.00687e-02       5.16413e-01      
 5.40000e-02       6.95761e-12       2.34845e-13       1.32683e-14       5.32086e-15       5.16413e-01       4.00688e-02       5.16413e-01      
 6.30000e-02       9.32789e-12       3.07610e-13       1.32197e-14       7.13512e-15       5.16413e-01       4.00689e-02       5.16413e-01      
 7.20000e-02       1.25043e-11       4.05158e-13       1.31739e-14       9.56731e-15       5.16413e-01       4.00690e-02       5.16413e-01      
 8.10000e-02       1.67602e-11       5.35916e-13       1.31312e-14       1.28275e-14       5.16413e-01       4.00692e-02       5.16413e-01      
 9.00000e-02       2.24612e-11       7.11165e-13       1.30918e-14       1.71970e-14       5.16413e-01       4.00694e-02       5.16413e-01      
 9.90000e-02       3.00962e-11       9.46004e-13       1.30562e-14       2.30521e-14       5.16413e-01       4.00697e-02       5.16413e-01      
 1.08000e-01       4.03181e-11       1.26064e-12       1.30249e-14       3.08966e-14       5.16413e-01       4.00702e-02       5.16413e-01      
 1.17000e-01       5.39985e-11       1.68208e-12       1.29985e-14       4.14040e-14       5.16413e-01       4.00707e-02       5.16413e-01      
 1.26000e-01       7.23002e-11       2.24643e-12       1.29778e-14       5.54743e-14       5.16413e-01       4.00715e-02       5.16413e-01      
 1.35000e-01       9.67720e-11       3.00194e-12       1.29637e-14       7.43096e-14       5.16413e-01       4.00725e-02       5.16413e-01      
 1.44000e-01       1.29475e-10       4.01296e-12       1.29574e-14       9.95142e-14       5.16413e-01       4.00739e-02       5.16413e-01      
 1.53000e-01       1.73149e-10       5.36532e-12       1.29600e-14       1.33227e-13       5.16413e-01       4.00757e-02       5.16413e-01      
 1.62000e-01       2.31411e-10       7.17328e-12       1.29726e-14       1.78294e-13       5.16413e-01       4.00782e-02       5.16413e-01      
 1.71000e-01       3.09071e-10       9.58876e-12       1.29976e-14       2.38500e-13       5.16413e-01       4.00814e-02       5.16413e-01      
 1.80000e-01       4.12471e-10       1.28136e-11       1.30375e-14       3.18869e-13       5.16413e-01       4.00858e-02       5.16413e-01      
 1.89000e-01       5.49961e-10       1.71152e-11       1.30945e-14       4.26059e-13       5.16413e-01       4.00916e-02       5.16413e-01      
 1.98000e-01       7.32497e-10       2.28477e-11       1.31718e-14       5.68872e-13       5.16413e-01       4.00994e-02       5.16413e-01      
 2.07000e-01       9.74401e-10       3.04779e-11       1.32726e-14       7.58913e-13       5.16413e-01       4.01097e-02       5.16413e-01      
 2.16000e-01       1.29431e-09       4.06203e-11       1.34006e-14       1.01143e-12       5.16413e-01       4.01234e-02       5.16413e-01      
 2.25000e-01       1.71634e-09       5.40811e-11       1.35598e-14       1.34641e-12       5.16413e-01       4.01416e-02       5.16413e-01      
 2.34000e-01       2.27151e-09       7.19130e-11       1.37545e-14       1.78988e-12       5.16413e-01       4.01657e-02       5.16413e-01      
 2.43000e-01       2.99944e-09       9.54854e-11       1.39893e-14       2.37564e-12       5.16413e-01       4.01975e-02       5.16413e-01      
 2.52000e-01       3.95032e-09       1.26570e-10       1.42688e-14       3.14721e-12       5.16413e-01       4.02393e-02       5.16413e-01      
 2.61000e-01       5.18711e-09       1.67447e-10       1.45976e-14       4.16038e-12       5.16413e-01       4.02942e-02       5.16413e-01      
 2.70000e-01       6.78797e-09       2.21029e-10       1.49801e-14       5.48595e-12       5.16413e-01       4.03659e-02       5.16413e-01      
 2.79000e-01       8.84873e-09       2.91009e-10       1.54204e-14       7.21297e-12       5.16413e-01       4.04592e-02       5.16413e-01      
 2.88000e-01       1.14853e-08       3.82031e-10       1.59218e-14       9.45224e-12       5.16413e-01       4.05799e-02       5.16413e-01      
 2.97000e-01       1.48359e-08       4.99884e-10       1.64872e-14       1.23399e-11       5.16413e-01       4.07351e-02       5.16413e-01      
 3.06000e-01       1.90624e-08       6.51703e-10       1.71184e-14       1.60408e-11       5.16413e-01       4.09334e-02       5.16413e-01      
 3.15000e-01       2.43511e-08       8.46192e-10       1.78163e-14       2.07513e-11       5.16413e-01       4.11848e-02       5.16413e-01      
 3.24000e-01       3.09122e-08       1.09384e-09       1.85806e-14       2.67014e-11       5.16413e-01       4.15006e-02       5.16413e-01      
 3.33000e-01       3.89779e-08       1.40712e-09       1.94102e-14       3.41548e-11       5.16413e-01       4.18936e-02       5.16413e-01      
 3.42000e-01       4.87991e-08       1.80070e-09       2.03024e-14       4.34075e-11       5.16413e-01       4.23776e-02       5.16413e-01      
 3.51000e-01       6.06402e-08       2.29157e-09       2.12536e-14       5.47837e-11       5.16413e-01       4.29670e-02       5.16413e-01      
 3.60000e-01       7.47731e-08       2.89910e-09       2.22592e-14       6.86304e-11       5.16413e-01       4.36764e-02       5.16413e-01      
 3.69000e-01       9.14703e-08       3.64518e-09       2.33135e-14       8.53089e-11       5.16413e-01       4.45196e-02       5.16413e-01      
 3.78000e-01       1.10998e-07       4.55406e-09       2.44101e-14       1.05187e-10       5.16413e-01       4.55093e-02       5.16413e-01      
 3.87000e-01       1.33614e-07       5.65241e-09       2.55418e-14       1.28627e-10       5.16413e-01       4.66565e-02       5.16413e-01      
 3.96000e-01       1.59561e-07       6.96911e-09       2.67010e-14       1.55985e-10       5.16413e-01       4.79701e-02       5.16413e-01      
 4.05000e-01       1.89074e-07       8.53520e-09       2.78797e-14       1.87598e-10       5.16413e-01       4.94565e-02       5.16413e-01      
 4.14000e-01       2.22389e-07       1.03838e-08       2.90700e-14       2.23785e-10       5.16413e-01       5.11202e-02       5.16413e-01      
 4.23000e-01       2.59746e-07       1.25503e-08       3.02638e-14       2.64851e-10       5.16413e-01       5.29635e-02       5.16413e-01      
 4.32000e-01       3.01407e-07       1.50722e-08       3.14535e-14       3.11086e-10       5.16413e-01       5.49873e-02       5.16413e-01      
 4.41000e-01       3.47664e-07       1.79894e-08       3.26319e-14       3.62774e-10       5.16413e-01       5.71916e-02       5.16413e-01      
 4.50000e-01       3.98844e-07       2.13449e-08       3.37922e-14       4.20199e-10       5.16413e-01       5.95756e-02       5.16413e-01      
 4.59000e-01       4.55309e-07       2.51845e-08       3.49284e-14       4.83651e-10       5.16413e-01       6.21386e-02       5.16413e-01      
 4.68000e-01       5.17452e-07       2.95575e-08       3.60351e-14       5.53428e-10       5.16413e-01       6.48799e-02       5.16413e-01      
 4.77000e-01       5.85686e-07       3.45169e-08       3.71080e-14       6.29842e-10       5.16413e-01       6.77990e-02       5.16413e-01      
 4.86000e-01       6.60429e-07       4.01194e-08       3.81433e-14       7.13217e-10       5.16413e-01       7.08956e-02       5.16413e-01      
 4.95000e-01       7.42088e-07       4.64254e-08       3.91381e-14       8.03892e-10       5.16413e-01       7.41697e-02       5.16413e-01      
 5.04000e-01       8.31045e-07       5.34989e-08       4.00902e-14       9.02211e-10       5.16413e-01       7.76212e-02       5.16413e-01      
 5.13000e-01       9.27638e-07       6.14071e-08       4.09981e-14       1.00852e-09       5.16413e-01       8.12501e-02       5.16413e-01      
 5.22000e-01       1.03215e-06       7.02201e-08       4.18612e-14       1.12318e-09       5.16413e-01       8.50559e-02       5.16413e-01      
 5.31000e-01       1.14479e-06       8.00101e-08       4.26792e-14       1.24653e-09       5.16413e-01       8.90378e-02       5.16413e-01      
 5.40000e-01       1.26569e-06       9.08511e-08       4.34523e-14       1.37891e-09       5.16413e-01       9.31946e-02       5.16413e-01      
 5.49000e-01       1.39492e-06       1.02818e-07       4.41813e-14       1.52064e-09       5.16413e-01       9.75244e-02       5.16413e-01      
 5.58000e-01       1.53244e-06       1.15984e-07       4.48673e-14       1.67203e-09       5.16413e-01       1.02025e-01       5.16413e-01      
 5.67000e-01       1.67815e-06       1.30426e-07       4.55116e-14       1.83338e-09       5.16413e-01       1.06692e-01       5.16413e-01      
 5.76000e-01       1.83185e-06       1.46215e-07       4.61157e-14       2.00494e-09       5.16413e-01       1.11523e-01       5.16413e-01      
 5.85000e-01       1.99329e-06       1.63423e-07       4.66815e-14       2.18699e-09       5.16413e-01       1.16513e-01       5.16413e-01      
 5.94000e-01       2.16215e-06       1.82117e-07       4.72108e-14       2.37974e-09       5.16413e-01       1.21656e-01       5.16413e-01      
 6.03000e-01       2.33805e-06       2.02362e-07       4.77054e-14       2.58341e-09       5.16413e-01       1.26948e-01       5.16413e-01      
 6.12000e-01       2.52059e-06       2.24221e-07       4.81674e-14       2.79821e-09       5.16413e-01       1.32383e-01       5.16413e-01      
 6.21000e-01       2.70930e-06       2.47751e-07       4.85987e-14       3.02432e-09       5.16413e-01       1.37954e-01       5.16413e-01      
 6.30000e-01       2.90372e-06       2.73006e-07       4.90012e-14       3.26192e-09       5.16413e-01       1.43655e-01       5.16413e-01      
 6.39000e-01       3.10337e-06       3.00034e-07       4.93768e-14       3.51118e-09       5.16413e-01       1.49480e-01       5.16413e-01      
 6.48000e-01       3.30776e-06       3.28881e-07       4.97273e-14       3.77226e-09       5.16413e-01       1.55421e-01       5.16413e-01      
 6.57000e-01       3.51643e-06       3.59587e-07       5.00544e-14       4.04534e-09       5.16413e-01       1.61474e-01       5.16413e-01      
 6.66000e-01       3.72890e-06       3.92188e-07       5.03599e-14       4.33059e-09       5.16413e-01       1.67630e-01       5.16413e-01      
 6.75000e-01       3.94474e-06       4.26717e-07       5.06452e-14       4.62818e-09       5.16413e-01       1.73884e-01       5.16413e-01      
 6.84000e-01       4.16351e-06       4.63202e-07       5.09118e-14       4.93831e-09       5.16413e-01       1.80230e-01       5.16413e-01      
 6.93000e-01       4.38481e-06       5.01668e-07       5.11612e-14       5.26116e-09       5.16413e-01       1.86662e-01       5.16413e-01      
 7.02000e-01       4.60829e-06       5.42135e-07       5.13947e-14       5.59698e-09       5.16413e-01       1.93175e-01       5.16413e-01      
 7.11000e-01       4.83358e-06       5.84622e-07       5.16134e-14       5.94598e-09       5.16413e-01       1.99763e-01       5.16413e-01      
 7.20000e-01       5.06038e-06       6.29144e-07       5.18185e-14       6.30843e-09       5.16413e-01       2.06421e-01       5.16413e-01      
 7.29000e-01       5.28841e-06       6.75713e-07       5.20110e-14       6.68461e-09       5.16413e-01       2.13144e-01       5.16413e-01      
 7.38000e-01       5.51739e-06       7.24338e-07       5.21920e-14       7.07483e-09       5.16413e-01       2.19929e-01       5.16413e-01      
 7.47000e-01       5.74710e-06       7.75028e-07       5.23623e-14       7.47943e-09       5.16413e-01       2.26770e-01       5.16413e-01      
 7.56000e-01       5.97732e-06       8.27788e-07       5.25228e-14       7.89879e-09       5.16413e-01       2.33665e-01       5.16413e-01      
 7.65000e-01       6.20787e-06       8.82621e-07       5.26742e-14       8.33330e-09       5.16413e-01       2.40610e-01       5.16413e-01      
 7.74000e-01       6.43857e-06       9.39530e-07       5.28172e-14       8.78341e-09       5.16413e-01       2.47601e-01       5.16413e-01      
 7.83000e-01       6.66929e-06       9.98515e-07       5.29525e-14       9.24959e-09       5.16413e-01       2.54635e-01       5.16413e-01      
 7.92000e-01       6.89988e-06       1.05958e-06       5.30807e-14       9.73238e-09       5.16413e-01       2.61710e-01       5.16413e-01      
 8.01000e-01       7.13023e-06       1.12271e-06       5.32023e-14       1.02323e-08       5.16413e-01       2.68823e-01       5.16413e-01      
 8.10000e-01       7.36023e-06       1.18792e-06       5.33178e-14       1.07501e-08       5.16413e-01       2.75971e-01       5.16413e-01      
 8.19000e-01       7.58979e-06       1.25519e-06       5.34277e-14       1.12862e-08       5.16413e-01       2.83154e-01       5.16413e-01      
 8.28000e-01       7.81884e-06       1.32453e-06       5.35324e-14       1.18416e-08       5.16413e-01       2.90368e-01       5.16413e-01      
 8.37000e-01       8.04728e-06       1.39593e-06       5.36323e-14       1.24169e-08       5.16413e-01       2.97612e-01       5.16413e-01      
 8.46000e-01       8.27507e-06       1.46938e-06       5.37277e-14       1.30130e-08       5.16413e-01       3.04884e-01       5.16413e-01      
 8.55000e-01       8.50214e-06       1.54488e-06       5.38190e-14       1.36308e-08       5.16413e-01       3.12184e-01       5.16413e-01      
 8.64000e-01       8.72843e-06       1.62242e-06       5.39066e-14       1.42712e-08       5.16413e-01       3.19509e-01       5.16413e-01      
 8.73000e-01       8.95390e-06       1.70199e-06       5.39905e-14       1.49354e-08       5.16413e-01       3.26858e-01       5.16413e-01      
 8.82000e-01       9.17850e-06       1.78359e-06       5.40712e-14       1.56245e-08       5.16413e-01       3.34230e-01       5.16413e-01      
 8.91000e-01       9.40219e-06       1.86720e-06       5.41489e-14       1.63397e-08       5.16413e-01       3.41625e-01       5.16413e-01      
 9.00000e-01       9.62492e-06       1.95282e-06       5.42237e-14       1.70823e-08       5.16413e-01       3.49041e-01       5.16413e-01      
 9.09000e-01       9.84667e-06       2.04045e-06       5.42959e-14       1.78538e-08       5.16413e-01       3.56478e-01       5.16413e-01      
 9.18000e-01       1.00674e-05       2.13006e-06       5.43656e-14       1.86558e-08       5.16413e-01       3.63935e-01       5.16413e-01      
 9.27000e-01       1.02871e-05       2.22166e-06       5.44330e-14       1.94899e-08       5.16413e-01       3.71411e-01       5.16413e-01      
 9.36000e-01       1.05056e-05       2.31522e-06       5.44983e-14       2.03579e-08       5.16413e-01       3.78906e-01       5.16413e-01      
 9.45000e-01       1.07231e-05       2.41075e-06       5.45617e-14       2.12619e-08       5.16413e-01       3.86419e-01       5.16413e-01      
 9.54000e-01       1.09393e-05       2.50824e-06       5.46231e-14       2.22038e-08       5.16413e-01       3.93950e-01       5.16413e-01      
 9.63000e-01       1.11544e-05       2.60766e-06       5.46829e-14       2.31861e-08       5.16413e-01       4.01498e-01       5.16413e-01      
 9.72000e-01       1.13683e-05       2.70901e-06       5.47411e-14       2.42113e-08       5.16413e-01       4.09063e-01       5.16413e-01      
 9.81000e-01       1.15809e-05       2.81228e-06       5.47977e-14       2.52821e-08       5.16413e-01       4.16645e-01       5.16413e-01      
 9.90000e-01       1.17922e-05       2.91746e-06       5.48530e-14       2.64014e-08       5.16413e-01       4.24243e-01       5.16413e-01      
 9.99000e-01       1.20022e-05       3.02454e-06       5.49070e-14       2.75724e-08       5.16413e-01       4.31857e-01       5.16413e-01      
 1.00800e+00       1.22108e-05       3.13350e-06       5.49598e-14       2.87987e-08       5.16413e-01       4.39487e-01       5.16413e-01      
 1.01700e+00       1.24180e-05       3.24433e-06       5.50114e-14       3.00841e-08       5.16413e-01       4.47133e-01       5.16413e-01      
 1.02600e+00       1.26238e-05       3.35702e-06       5.50620e-14       3.14328e-08       5.16413e-01       4.54794e-01       5.16413e-01      
 1.03500e+00       1.28282e-05       3.47155e-06       5.51117e-14       3.28493e-08       5.16413e-01       4.62471e-01       5.16413e-01      
 1.04400e+00       1.30311e-05       3.58792e-06       5.51604e-14       3.43386e-08       5.16413e-01       4.70162e-01       5.16413e-01      
 1.05300e+00       1.32324e-05       3.70611e-06       5.52084e-14       3.59061e-08       5.16413e-01       4.77869e-01       5.16413e-01      
 1.06200e+00       1.34322e-05       3.82610e-06       5.52556e-14       3.75579e-08       5.16413e-01       4.85591e-01       5.16413e-01      
 1.07100e+00       1.36304e-05       3.94788e-06       5.53021e-14       3.93005e-08       5.16413e-01       4.93328e-01       5.16413e-01      
 1.08000e+00       1.38269e-05       4.07144e-06       5.53480e-14       4.11412e-08       5.16413e-01       5.01079e-01       5.16413e-01      
 1.08900e+00       1.40218e-05       4.19676e-06       5.53933e-14       4.30879e-08       5.16413e-01       5.08845e-01       5.16413e-01      
 1.09800e+00       1.42149e-05       4.32383e-06       5.54381e-14       4.51494e-08       5.16413e-01       5.16626e-01       5.16413e-01      
 1.10700e+00       1.44063e-05       4.45263e-06       5.54824e-14       4.73354e-08       5.16413e-01       5.24422e-01       5.16413e-01      
 1.11600e+00       1.45960e-05       4.58314e-06       5.55264e-14       4.96565e-08       5.16413e-01       5.32233e-01       5.16413e-01      
 1.12500e+00       1.47838e-05       4.71535e-06       5.55700e-14       5.21246e-08       5.16413e-01       5.40058e-01       5.16413e-01      
 1.13400e+00       1.49697e-05       4.84924e-06       5.56134e-14       5.47528e-08       5.16413e-01       5.47898e-01       5.16413e-01      
 1.14300e+00       1.51537e-05       4.98480e-06       5.56565e-14       5.75556e-08       5.16413e-01       5.55752e-01       5.16413e-01      
 1.15200e+00       1.53358e-05       5.12200e-06       5.56994e-14       6.05492e-08       5.16413e-01       5.63621e-01       5.16413e-01      
 1.16100e+00       1.55158e-05       5.26083e-06       5.57422e-14       6.37516e-08       5.16413e-01       5.71505e-01       5.16413e-01      
 1.17000e+00       1.56938e-05       5.40128e-06       5.57850e-14       6.71827e-08       5.16413e-01       5.79404e-01       5.16413e-01      
 1.17900e+00       1.58698e-05       5.54332e-06       5.58278e-14       7.08649e-08       5.16413e-01       5.87317e-01       5.16413e-01      
 1.18800e+00       1.60435e-05       5.68693e-06       5.58706e-14       7.48230e-08       5.16413e-01       5.95245e-01       5.16413e-01      
 1.19700e+00       1.62151e-05       5.83209e-06       5.59135e-14       7.90850e-08       5.16413e-01       6.03188e-01       5.16413e-01      
 1.20600e+00       1.63844e-05       5.97879e-06       5.59566e-14       8.36819e-08       5.16413e-01       6.11146e-01       5.16413e-01      
 1.21500e+00       1.65515e-05       6.12701e-06       5.59999e-14       8.86487e-08       5.16413e-01       6.19118e-01       5.16413e-01      
