
dc (V)            getData("M0:gm    getData("M0:id    getData("M0:cg    getData("M0:gd    getData("M0:vt    getData("M0:vd    getData("M0:vt

 0.00000e+00       1.18710e-12       5.78217e-14       1.37183e-14       9.01736e-16       5.16377e-01       4.00640e-02       5.16377e-01      
 9.00000e-03       1.59215e-12       7.02393e-14       1.36555e-14       1.20953e-15       5.16377e-01       4.00640e-02       5.16377e-01      
 1.80000e-02       2.13532e-12       8.68936e-14       1.35948e-14       1.62233e-15       5.16377e-01       4.00640e-02       5.16377e-01      
 2.70000e-02       2.86365e-12       1.09229e-13       1.35362e-14       2.17595e-15       5.16377e-01       4.00640e-02       5.16377e-01      
 3.60000e-02       3.84018e-12       1.39182e-13       1.34799e-14       2.91838e-15       5.16377e-01       4.00641e-02       5.16377e-01      
 4.50000e-02       5.14936e-12       1.79347e-13       1.34259e-14       3.91395e-15       5.16377e-01       4.00641e-02       5.16377e-01      
 5.40000e-02       6.90432e-12       2.33204e-13       1.33743e-14       5.24886e-15       5.16377e-01       4.00642e-02       5.16377e-01      
 6.30000e-02       9.25652e-12       3.05412e-13       1.33253e-14       7.03864e-15       5.16377e-01       4.00643e-02       5.16377e-01      
 7.20000e-02       1.24087e-11       4.02214e-13       1.32791e-14       9.43802e-15       5.16377e-01       4.00644e-02       5.16377e-01      
 8.10000e-02       1.66322e-11       5.31974e-13       1.32360e-14       1.26543e-14       5.16377e-01       4.00646e-02       5.16377e-01      
 9.00000e-02       2.22900e-11       7.05885e-13       1.31964e-14       1.69649e-14       5.16377e-01       4.00648e-02       5.16377e-01      
 9.90000e-02       2.98670e-11       9.38935e-13       1.31605e-14       2.27412e-14       5.16377e-01       4.00652e-02       5.16377e-01      
 1.08000e-01       4.00113e-11       1.25117e-12       1.31289e-14       3.04802e-14       5.16377e-01       4.00656e-02       5.16377e-01      
 1.17000e-01       5.35881e-11       1.66941e-12       1.31024e-14       4.08463e-14       5.16377e-01       4.00662e-02       5.16377e-01      
 1.26000e-01       7.17513e-11       2.22948e-12       1.30815e-14       5.47275e-14       5.16377e-01       4.00669e-02       5.16377e-01      
 1.35000e-01       9.60381e-11       2.97925e-12       1.30673e-14       7.33099e-14       5.16377e-01       4.00680e-02       5.16377e-01      
 1.44000e-01       1.28494e-10       3.98261e-12       1.30609e-14       9.81762e-14       5.16377e-01       4.00693e-02       5.16377e-01      
 1.53000e-01       1.71839e-10       5.32473e-12       1.30636e-14       1.31437e-13       5.16377e-01       4.00712e-02       5.16377e-01      
 1.62000e-01       2.29661e-10       7.11901e-12       1.30763e-14       1.75900e-13       5.16377e-01       4.00736e-02       5.16377e-01      
 1.71000e-01       3.06736e-10       9.51623e-12       1.31016e-14       2.35299e-13       5.16377e-01       4.00769e-02       5.16377e-01      
 1.80000e-01       4.09357e-10       1.27167e-11       1.31418e-14       3.14591e-13       5.16377e-01       4.00813e-02       5.16377e-01      
 1.89000e-01       5.45813e-10       1.69859e-11       1.31995e-14       4.20347e-13       5.16377e-01       4.00871e-02       5.16377e-01      
 1.98000e-01       7.26976e-10       2.26751e-11       1.32775e-14       5.61248e-13       5.16377e-01       4.00949e-02       5.16377e-01      
 2.07000e-01       9.67061e-10       3.02478e-11       1.33792e-14       7.48747e-13       5.16377e-01       4.01052e-02       5.16377e-01      
 2.16000e-01       1.28456e-09       4.03139e-11       1.35083e-14       9.97891e-13       5.16377e-01       4.01189e-02       5.16377e-01      
 2.25000e-01       1.70342e-09       5.36733e-11       1.36690e-14       1.32839e-12       5.16377e-01       4.01371e-02       5.16377e-01      
 2.34000e-01       2.25441e-09       7.13710e-11       1.38654e-14       1.76593e-12       5.16377e-01       4.01612e-02       5.16377e-01      
 2.43000e-01       2.97687e-09       9.47661e-11       1.41023e-14       2.34385e-12       5.16377e-01       4.01930e-02       5.16377e-01      
 2.52000e-01       3.92060e-09       1.25617e-10       1.43843e-14       3.10512e-12       5.16377e-01       4.02349e-02       5.16377e-01      
 2.61000e-01       5.14807e-09       1.66187e-10       1.47160e-14       4.10474e-12       5.16377e-01       4.02898e-02       5.16377e-01      
 2.70000e-01       6.73685e-09       2.19365e-10       1.51019e-14       5.41257e-12       5.16377e-01       4.03616e-02       5.16377e-01      
 2.79000e-01       8.78204e-09       2.88817e-10       1.55460e-14       7.11647e-12       5.16377e-01       4.04549e-02       5.16377e-01      
 2.88000e-01       1.13987e-08       3.79153e-10       1.60518e-14       9.32576e-12       5.16377e-01       4.05757e-02       5.16377e-01      
 2.97000e-01       1.47239e-08       4.96117e-10       1.66221e-14       1.21747e-11       5.16377e-01       4.07311e-02       5.16377e-01      
 3.06000e-01       1.89182e-08       6.46788e-10       1.72588e-14       1.58259e-11       5.16377e-01       4.09295e-02       5.16377e-01      
 3.15000e-01       2.41665e-08       8.39803e-10       1.79627e-14       2.04732e-11       5.16377e-01       4.11810e-02       5.16377e-01      
 3.24000e-01       3.06773e-08       1.08557e-09       1.87337e-14       2.63432e-11       5.16377e-01       4.14970e-02       5.16377e-01      
 3.33000e-01       3.86811e-08       1.39647e-09       1.95703e-14       3.36962e-11       5.16377e-01       4.18903e-02       5.16377e-01      
 3.42000e-01       4.84265e-08       1.78705e-09       2.04701e-14       4.28239e-11       5.16377e-01       4.23746e-02       5.16377e-01      
 3.51000e-01       6.01760e-08       2.27416e-09       2.14295e-14       5.40462e-11       5.16377e-01       4.29644e-02       5.16377e-01      
 3.60000e-01       7.41991e-08       2.87704e-09       2.24436e-14       6.77052e-11       5.16377e-01       4.36741e-02       5.16377e-01      
 3.69000e-01       9.07659e-08       3.61738e-09       2.35069e-14       8.41573e-11       5.16377e-01       4.45177e-02       5.16377e-01      
 3.78000e-01       1.10141e-07       4.51926e-09       2.46127e-14       1.03764e-10       5.16377e-01       4.55079e-02       5.16377e-01      
 3.87000e-01       1.32578e-07       5.60910e-09       2.57539e-14       1.26886e-10       5.16377e-01       4.66556e-02       5.16377e-01      
 3.96000e-01       1.58320e-07       6.91558e-09       2.69228e-14       1.53870e-10       5.16377e-01       4.79696e-02       5.16377e-01      
 4.05000e-01       1.87601e-07       8.46949e-09       2.81114e-14       1.85050e-10       5.16377e-01       4.94566e-02       5.16377e-01      
 4.14000e-01       2.20651e-07       1.03037e-08       2.93116e-14       2.20742e-10       5.16377e-01       5.11207e-02       5.16377e-01      
 4.23000e-01       2.57710e-07       1.24532e-08       3.05153e-14       2.61245e-10       5.16377e-01       5.29645e-02       5.16377e-01      
 4.32000e-01       2.99040e-07       1.49553e-08       3.17149e-14       3.06846e-10       5.16377e-01       5.49888e-02       5.16377e-01      
 4.41000e-01       3.44928e-07       1.78496e-08       3.29030e-14       3.57825e-10       5.16377e-01       5.71935e-02       5.16377e-01      
 4.50000e-01       3.95699e-07       2.11786e-08       3.40728e-14       4.14464e-10       5.16377e-01       5.95779e-02       5.16377e-01      
 4.59000e-01       4.51714e-07       2.49879e-08       3.52183e-14       4.77046e-10       5.16377e-01       6.21413e-02       5.16377e-01      
 4.68000e-01       5.13361e-07       2.93264e-08       3.63341e-14       5.45867e-10       5.16377e-01       6.48830e-02       5.16377e-01      
 4.77000e-01       5.81050e-07       3.42465e-08       3.74158e-14       6.21236e-10       5.16377e-01       6.78025e-02       5.16377e-01      
 4.86000e-01       6.55195e-07       3.98047e-08       3.84595e-14       7.03473e-10       5.16377e-01       7.08994e-02       5.16377e-01      
 4.95000e-01       7.36203e-07       4.60607e-08       3.94623e-14       7.92910e-10       5.16377e-01       7.41738e-02       5.16377e-01      
 5.04000e-01       8.24449e-07       5.30780e-08       4.04221e-14       8.89890e-10       5.16377e-01       7.76257e-02       5.16377e-01      
 5.13000e-01       9.20268e-07       6.09235e-08       4.13374e-14       9.94757e-10       5.16377e-01       8.12549e-02       5.16377e-01      
 5.22000e-01       1.02394e-06       6.96664e-08       4.22075e-14       1.10786e-09       5.16377e-01       8.50609e-02       5.16377e-01      
 5.31000e-01       1.13568e-06       7.93786e-08       4.30320e-14       1.22954e-09       5.16377e-01       8.90432e-02       5.16377e-01      
 5.40000e-01       1.25561e-06       9.01332e-08       4.38114e-14       1.36012e-09       5.16377e-01       9.32002e-02       5.16377e-01      
 5.49000e-01       1.38380e-06       1.02004e-07       4.45462e-14       1.49994e-09       5.16377e-01       9.75303e-02       5.16377e-01      
 5.58000e-01       1.52021e-06       1.15066e-07       4.52377e-14       1.64929e-09       5.16377e-01       1.02031e-01       5.16377e-01      
 5.67000e-01       1.66474e-06       1.29393e-07       4.58871e-14       1.80846e-09       5.16377e-01       1.06698e-01       5.16377e-01      
 5.76000e-01       1.81721e-06       1.45055e-07       4.64961e-14       1.97772e-09       5.16377e-01       1.11529e-01       5.16377e-01      
 5.85000e-01       1.97734e-06       1.62125e-07       4.70664e-14       2.15732e-09       5.16377e-01       1.16519e-01       5.16377e-01      
 5.94000e-01       2.14484e-06       1.80670e-07       4.75999e-14       2.34748e-09       5.16377e-01       1.21663e-01       5.16377e-01      
 6.03000e-01       2.31931e-06       2.00753e-07       4.80985e-14       2.54843e-09       5.16377e-01       1.26955e-01       5.16377e-01      
 6.12000e-01       2.50036e-06       2.22437e-07       4.85642e-14       2.76036e-09       5.16377e-01       1.32390e-01       5.16377e-01      
 6.21000e-01       2.68754e-06       2.45778e-07       4.89989e-14       2.98345e-09       5.16377e-01       1.37961e-01       5.16377e-01      
 6.30000e-01       2.88038e-06       2.70830e-07       4.94046e-14       3.21788e-09       5.16377e-01       1.43662e-01       5.16377e-01      
 6.39000e-01       3.07840e-06       2.97641e-07       4.97832e-14       3.46381e-09       5.16377e-01       1.49487e-01       5.16377e-01      
 6.48000e-01       3.28113e-06       3.26255e-07       5.01365e-14       3.72143e-09       5.16377e-01       1.55429e-01       5.16377e-01      
 6.57000e-01       3.48809e-06       3.56714e-07       5.04662e-14       3.99088e-09       5.16377e-01       1.61481e-01       5.16377e-01      
 6.66000e-01       3.69883e-06       3.89052e-07       5.07741e-14       4.27234e-09       5.16377e-01       1.67637e-01       5.16377e-01      
 6.75000e-01       3.91290e-06       4.23302e-07       5.10616e-14       4.56598e-09       5.16377e-01       1.73891e-01       5.16377e-01      
 6.84000e-01       4.12988e-06       4.59493e-07       5.13304e-14       4.87200e-09       5.16377e-01       1.80237e-01       5.16377e-01      
 6.93000e-01       4.34937e-06       4.97648e-07       5.15818e-14       5.19059e-09       5.16377e-01       1.86669e-01       5.16377e-01      
 7.02000e-01       4.57102e-06       5.37788e-07       5.18171e-14       5.52197e-09       5.16377e-01       1.93182e-01       5.16377e-01      
 7.11000e-01       4.79447e-06       5.79931e-07       5.20375e-14       5.86637e-09       5.16377e-01       1.99769e-01       5.16377e-01      
 7.20000e-01       5.01941e-06       6.24093e-07       5.22443e-14       6.22404e-09       5.16377e-01       2.06427e-01       5.16377e-01      
 7.29000e-01       5.24557e-06       6.70284e-07       5.24384e-14       6.59527e-09       5.16377e-01       2.13150e-01       5.16377e-01      
 7.38000e-01       5.47267e-06       7.18516e-07       5.26208e-14       6.98037e-09       5.16377e-01       2.19935e-01       5.16377e-01      
 7.47000e-01       5.70050e-06       7.68795e-07       5.27925e-14       7.37966e-09       5.16377e-01       2.26776e-01       5.16377e-01      
 7.56000e-01       5.92883e-06       8.21126e-07       5.29542e-14       7.79352e-09       5.16377e-01       2.33671e-01       5.16377e-01      
 7.65000e-01       6.15749e-06       8.75515e-07       5.31068e-14       8.22234e-09       5.16377e-01       2.40615e-01       5.16377e-01      
 7.74000e-01       6.38631e-06       9.31962e-07       5.32510e-14       8.66657e-09       5.16377e-01       2.47606e-01       5.16377e-01      
 7.83000e-01       6.61513e-06       9.90468e-07       5.33873e-14       9.12667e-09       5.16377e-01       2.54640e-01       5.16377e-01      
 7.92000e-01       6.84384e-06       1.05103e-06       5.35165e-14       9.60317e-09       5.16377e-01       2.61714e-01       5.16377e-01      
 8.01000e-01       7.07230e-06       1.11366e-06       5.36391e-14       1.00966e-08       5.16377e-01       2.68827e-01       5.16377e-01      
 8.10000e-01       7.30042e-06       1.17833e-06       5.37555e-14       1.06076e-08       5.16377e-01       2.75976e-01       5.16377e-01      
 8.19000e-01       7.52811e-06       1.24506e-06       5.38663e-14       1.11369e-08       5.16377e-01       2.83158e-01       5.16377e-01      
 8.28000e-01       7.75528e-06       1.31384e-06       5.39718e-14       1.16850e-08       5.16377e-01       2.90372e-01       5.16377e-01      
 8.37000e-01       7.98186e-06       1.38466e-06       5.40725e-14       1.22529e-08       5.16377e-01       2.97615e-01       5.16377e-01      
 8.46000e-01       8.20779e-06       1.45751e-06       5.41687e-14       1.28413e-08       5.16377e-01       3.04888e-01       5.16377e-01      
 8.55000e-01       8.43300e-06       1.53239e-06       5.42608e-14       1.34512e-08       5.16377e-01       3.12187e-01       5.16377e-01      
 8.64000e-01       8.65745e-06       1.60930e-06       5.43490e-14       1.40834e-08       5.16377e-01       3.19511e-01       5.16377e-01      
 8.73000e-01       8.88108e-06       1.68823e-06       5.44337e-14       1.47391e-08       5.16377e-01       3.26860e-01       5.16377e-01      
 8.82000e-01       9.10385e-06       1.76916e-06       5.45150e-14       1.54194e-08       5.16377e-01       3.34233e-01       5.16377e-01      
 8.91000e-01       9.32571e-06       1.85209e-06       5.45933e-14       1.61255e-08       5.16377e-01       3.41627e-01       5.16377e-01      
 9.00000e-01       9.54663e-06       1.93702e-06       5.46687e-14       1.68587e-08       5.16377e-01       3.49043e-01       5.16377e-01      
 9.09000e-01       9.76658e-06       2.02393e-06       5.47414e-14       1.76205e-08       5.16377e-01       3.56480e-01       5.16377e-01      
 9.18000e-01       9.98550e-06       2.11281e-06       5.48117e-14       1.84123e-08       5.16377e-01       3.63937e-01       5.16377e-01      
 9.27000e-01       1.02034e-05       2.20366e-06       5.48797e-14       1.92359e-08       5.16377e-01       3.71413e-01       5.16377e-01      
 9.36000e-01       1.04202e-05       2.29647e-06       5.49455e-14       2.00931e-08       5.16377e-01       3.78907e-01       5.16377e-01      
 9.45000e-01       1.06358e-05       2.39122e-06       5.50094e-14       2.09857e-08       5.16377e-01       3.86420e-01       5.16377e-01      
 9.54000e-01       1.08504e-05       2.48791e-06       5.50713e-14       2.19160e-08       5.16377e-01       3.93951e-01       5.16377e-01      
 9.63000e-01       1.10637e-05       2.58653e-06       5.51316e-14       2.28861e-08       5.16377e-01       4.01499e-01       5.16377e-01      
 9.72000e-01       1.12758e-05       2.68706e-06       5.51902e-14       2.38986e-08       5.16377e-01       4.09064e-01       5.16377e-01      
 9.81000e-01       1.14867e-05       2.78949e-06       5.52473e-14       2.49562e-08       5.16377e-01       4.16645e-01       5.16377e-01      
 9.90000e-01       1.16963e-05       2.89381e-06       5.53030e-14       2.60618e-08       5.16377e-01       4.24243e-01       5.16377e-01      
 9.99000e-01       1.19046e-05       3.00002e-06       5.53575e-14       2.72186e-08       5.16377e-01       4.31857e-01       5.16377e-01      
 1.00800e+00       1.21115e-05       3.10809e-06       5.54107e-14       2.84300e-08       5.16377e-01       4.39487e-01       5.16377e-01      
 1.01700e+00       1.23171e-05       3.21802e-06       5.54627e-14       2.96999e-08       5.16377e-01       4.47133e-01       5.16377e-01      
 1.02600e+00       1.25212e-05       3.32979e-06       5.55138e-14       3.10323e-08       5.16377e-01       4.54794e-01       5.16377e-01      
 1.03500e+00       1.27239e-05       3.44340e-06       5.55638e-14       3.24319e-08       5.16377e-01       4.62470e-01       5.16377e-01      
 1.04400e+00       1.29252e-05       3.55882e-06       5.56130e-14       3.39034e-08       5.16377e-01       4.70162e-01       5.16377e-01      
 1.05300e+00       1.31249e-05       3.67605e-06       5.56613e-14       3.54524e-08       5.16377e-01       4.77868e-01       5.16377e-01      
 1.06200e+00       1.33230e-05       3.79506e-06       5.57089e-14       3.70848e-08       5.16377e-01       4.85590e-01       5.16377e-01      
 1.07100e+00       1.35196e-05       3.91586e-06       5.57557e-14       3.88070e-08       5.16377e-01       4.93327e-01       5.16377e-01      
 1.08000e+00       1.37146e-05       4.03841e-06       5.58020e-14       4.06263e-08       5.16377e-01       5.01078e-01       5.16377e-01      
 1.08900e+00       1.39079e-05       4.16271e-06       5.58477e-14       4.25505e-08       5.16377e-01       5.08845e-01       5.16377e-01      
 1.09800e+00       1.40995e-05       4.28875e-06       5.58928e-14       4.45883e-08       5.16377e-01       5.16626e-01       5.16377e-01      
 1.10700e+00       1.42894e-05       4.41650e-06       5.59376e-14       4.67493e-08       5.16377e-01       5.24422e-01       5.16377e-01      
 1.11600e+00       1.44775e-05       4.54595e-06       5.59819e-14       4.90441e-08       5.16377e-01       5.32232e-01       5.16377e-01      
 1.12500e+00       1.46637e-05       4.67709e-06       5.60258e-14       5.14845e-08       5.16377e-01       5.40057e-01       5.16377e-01      
 1.13400e+00       1.48482e-05       4.80989e-06       5.60695e-14       5.40833e-08       5.16377e-01       5.47897e-01       5.16377e-01      
 1.14300e+00       1.50307e-05       4.94435e-06       5.61130e-14       5.68550e-08       5.16377e-01       5.55752e-01       5.16377e-01      
 1.15200e+00       1.52113e-05       5.08044e-06       5.61563e-14       5.98157e-08       5.16377e-01       5.63621e-01       5.16377e-01      
 1.16100e+00       1.53899e-05       5.21815e-06       5.61994e-14       6.29830e-08       5.16377e-01       5.71505e-01       5.16377e-01      
 1.17000e+00       1.55665e-05       5.35745e-06       5.62425e-14       6.63769e-08       5.16377e-01       5.79403e-01       5.16377e-01      
 1.17900e+00       1.57410e-05       5.49834e-06       5.62857e-14       7.00195e-08       5.16377e-01       5.87317e-01       5.16377e-01      
 1.18800e+00       1.59134e-05       5.64079e-06       5.63288e-14       7.39354e-08       5.16377e-01       5.95245e-01       5.16377e-01      
 1.19700e+00       1.60836e-05       5.78477e-06       5.63721e-14       7.81522e-08       5.16377e-01       6.03188e-01       5.16377e-01      
 1.20600e+00       1.62516e-05       5.93028e-06       5.64155e-14       8.27009e-08       5.16377e-01       6.11145e-01       5.16377e-01      
 1.21500e+00       1.64173e-05       6.07730e-06       5.64592e-14       8.76160e-08       5.16377e-01       6.19118e-01       5.16377e-01      
