
dc (V)            getData("M0:gm    getData("M0:id    getData("M0:cg    getData("M0:gd    getData("M0:vt    getData("M0:vd    getData("M0:vt

 0.00000e+00       2.65030e-12       1.03082e-13       5.99230e-15       3.88175e-15       5.21931e-01       4.08137e-02       5.21931e-01      
 9.00000e-03       3.54928e-12       1.30783e-13       5.96604e-15       5.19888e-15       5.21931e-01       4.08137e-02       5.21931e-01      
 1.80000e-02       4.75301e-12       1.67881e-13       5.94064e-15       6.96274e-15       5.21931e-01       4.08137e-02       5.21931e-01      
 2.70000e-02       6.36467e-12       2.17558e-13       5.91612e-15       9.32474e-15       5.21931e-01       4.08138e-02       5.21931e-01      
 3.60000e-02       8.52236e-12       2.84078e-13       5.89249e-15       1.24876e-14       5.21931e-01       4.08138e-02       5.21931e-01      
 4.50000e-02       1.14108e-11       3.73147e-13       5.86978e-15       1.67225e-14       5.21931e-01       4.08138e-02       5.21931e-01      
 5.40000e-02       1.52771e-11       4.92398e-13       5.84805e-15       2.23925e-14       5.21931e-01       4.08139e-02       5.21931e-01      
 6.30000e-02       2.04516e-11       6.52048e-13       5.82735e-15       2.99833e-14       5.21931e-01       4.08140e-02       5.21931e-01      
 7.20000e-02       2.73759e-11       8.65761e-13       5.80777e-15       4.01447e-14       5.21931e-01       4.08141e-02       5.21931e-01      
 8.10000e-02       3.66404e-11       1.15182e-12       5.78939e-15       5.37455e-14       5.21931e-01       4.08143e-02       5.21931e-01      
 9.00000e-02       4.90332e-11       1.53465e-12       5.77235e-15       7.19476e-14       5.21931e-01       4.08145e-02       5.21931e-01      
 9.90000e-02       6.56070e-11       2.04692e-12       5.75680e-15       9.63040e-14       5.21931e-01       4.08148e-02       5.21931e-01      
 1.08000e-01       8.77661e-11       2.73228e-12       5.74293e-15       1.28890e-13       5.21931e-01       4.08152e-02       5.21931e-01      
 1.17000e-01       1.17383e-10       3.64902e-12       5.73098e-15       1.72476e-13       5.21931e-01       4.08157e-02       5.21931e-01      
 1.26000e-01       1.56953e-10       4.87495e-12       5.72124e-15       2.30761e-13       5.21931e-01       4.08164e-02       5.21931e-01      
 1.35000e-01       2.09796e-10       6.51388e-12       5.71406e-15       3.08680e-13       5.21931e-01       4.08173e-02       5.21931e-01      
 1.44000e-01       2.80328e-10       8.70420e-12       5.70986e-15       4.12809e-13       5.21931e-01       4.08185e-02       5.21931e-01      
 1.53000e-01       3.74411e-10       1.16303e-11       5.70916e-15       5.51910e-13       5.21931e-01       4.08202e-02       5.21931e-01      
 1.62000e-01       4.99783e-10       1.55372e-11       5.71226e-15       7.37630e-13       5.21931e-01       4.08223e-02       5.21931e-01      
 1.71000e-01       6.66725e-10       2.07507e-11       5.72019e-15       9.85441e-13       5.21931e-01       4.08253e-02       5.21931e-01      
 1.80000e-01       8.88794e-10       2.77032e-11       5.73380e-15       1.31587e-12       5.21931e-01       4.08292e-02       5.21931e-01      
 1.89000e-01       1.18383e-09       3.69674e-11       5.75409e-15       1.75611e-12       5.21931e-01       4.08344e-02       5.21931e-01      
 1.98000e-01       1.57527e-09       4.93007e-11       5.78219e-15       2.34209e-12       5.21931e-01       4.08413e-02       5.21931e-01      
 2.07000e-01       2.09372e-09       6.57023e-11       5.81939e-15       3.12117e-12       5.21931e-01       4.08505e-02       5.21931e-01      
 2.16000e-01       2.77910e-09       8.74873e-11       5.86716e-15       4.15561e-12       5.21931e-01       4.08626e-02       5.21931e-01      
 2.25000e-01       3.68311e-09       1.16381e-10       5.92708e-15       5.52699e-12       5.21931e-01       4.08788e-02       5.21931e-01      
 2.34000e-01       4.87237e-09       1.54637e-10       6.00091e-15       7.34175e-12       5.21931e-01       4.09002e-02       5.21931e-01      
 2.43000e-01       6.43220e-09       2.05193e-10       6.09047e-15       9.73809e-12       5.21931e-01       4.09284e-02       5.21931e-01      
 2.52000e-01       8.47098e-09       2.71851e-10       6.19768e-15       1.28946e-11       5.21931e-01       4.09656e-02       5.21931e-01      
 2.61000e-01       1.11252e-08       3.59513e-10       6.32446e-15       1.70402e-11       5.21931e-01       4.10143e-02       5.21931e-01      
 2.70000e-01       1.45651e-08       4.74457e-10       6.47269e-15       2.24667e-11       5.21931e-01       4.10781e-02       5.21931e-01      
 2.79000e-01       1.90004e-08       6.24666e-10       6.64412e-15       2.95422e-11       5.21931e-01       4.11611e-02       5.21931e-01      
 2.88000e-01       2.46868e-08       8.20213e-10       6.84031e-15       3.87268e-11       5.21931e-01       4.12687e-02       5.21931e-01      
 2.97000e-01       3.19306e-08       1.07370e-09       7.06259e-15       5.05886e-11       5.21931e-01       4.14074e-02       5.21931e-01      
 3.06000e-01       4.10942e-08       1.40072e-09       7.31192e-15       6.58197e-11       5.21931e-01       4.15850e-02       5.21931e-01      
 3.15000e-01       5.25982e-08       1.82041e-09       7.58890e-15       8.52504e-11       5.21931e-01       4.18108e-02       5.21931e-01      
 3.24000e-01       6.69217e-08       2.35594e-09       7.89369e-15       1.09860e-10       5.21931e-01       4.20956e-02       5.21931e-01      
 3.33000e-01       8.46003e-08       3.03506e-09       8.22601e-15       1.40781e-10       5.21931e-01       4.24516e-02       5.21931e-01      
 3.42000e-01       1.06219e-07       3.89056e-09       8.58509e-15       1.79296e-10       5.21931e-01       4.28921e-02       5.21931e-01      
 3.51000e-01       1.32401e-07       4.96068e-09       8.96969e-15       2.26824e-10       5.21931e-01       4.34316e-02       5.21931e-01      
 3.60000e-01       1.63798e-07       6.28942e-09       9.37812e-15       2.84895e-10       5.21931e-01       4.40845e-02       5.21931e-01      
 3.69000e-01       2.01069e-07       7.92667e-09       9.80827e-15       3.55116e-10       5.21931e-01       4.48656e-02       5.21931e-01      
 3.78000e-01       2.44868e-07       9.92825e-09       1.02577e-14       4.39132e-10       5.21931e-01       4.57883e-02       5.21931e-01      
 3.87000e-01       2.95825e-07       1.23558e-08       1.07235e-14       5.38576e-10       5.21931e-01       4.68650e-02       5.21931e-01      
 3.96000e-01       3.54542e-07       1.52764e-08       1.12027e-14       6.55034e-10       5.21931e-01       4.81058e-02       5.21931e-01      
 4.05000e-01       4.21590e-07       1.87625e-08       1.16920e-14       7.90009e-10       5.21931e-01       4.95186e-02       5.21931e-01      
 4.14000e-01       4.97524e-07       2.28917e-08       1.21883e-14       9.44902e-10       5.21931e-01       5.11092e-02       5.21931e-01      
 4.23000e-01       5.82898e-07       2.77463e-08       1.26880e-14       1.12101e-09       5.21931e-01       5.28811e-02       5.21931e-01      
 4.32000e-01       6.78295e-07       3.34139e-08       1.31880e-14       1.31954e-09       5.21931e-01       5.48358e-02       5.21931e-01      
 4.41000e-01       7.84354e-07       3.99876e-08       1.36851e-14       1.54162e-09       5.21931e-01       5.69739e-02       5.21931e-01      
 4.50000e-01       9.01790e-07       4.75664e-08       1.41765e-14       1.78836e-09       5.21931e-01       5.92948e-02       5.21931e-01      
 4.59000e-01       1.03140e-06       5.62563e-08       1.46594e-14       2.06083e-09       5.21931e-01       6.17976e-02       5.21931e-01      
 4.68000e-01       1.17407e-06       6.61708e-08       1.51314e-14       2.36015e-09       5.21931e-01       6.44815e-02       5.21931e-01      
 4.77000e-01       1.33073e-06       7.74315e-08       1.55905e-14       2.68745e-09       5.21931e-01       6.73456e-02       5.21931e-01      
 4.86000e-01       1.50237e-06       9.01688e-08       1.60348e-14       3.04394e-09       5.21931e-01       7.03893e-02       5.21931e-01      
 4.95000e-01       1.68995e-06       1.04522e-07       1.64631e-14       3.43084e-09       5.21931e-01       7.36124e-02       5.21931e-01      
 5.04000e-01       1.89441e-06       1.20639e-07       1.68741e-14       3.84943e-09       5.21931e-01       7.70146e-02       5.21931e-01      
 5.13000e-01       2.11661e-06       1.38675e-07       1.72672e-14       4.30103e-09       5.21931e-01       8.05958e-02       5.21931e-01      
 5.22000e-01       2.35727e-06       1.58793e-07       1.76417e-14       4.78696e-09       5.21931e-01       8.43556e-02       5.21931e-01      
 5.31000e-01       2.61699e-06       1.81163e-07       1.79975e-14       5.30852e-09       5.21931e-01       8.82934e-02       5.21931e-01      
 5.40000e-01       2.89618e-06       2.05957e-07       1.83344e-14       5.86701e-09       5.21931e-01       9.24081e-02       5.21931e-01      
 5.49000e-01       3.19507e-06       2.33353e-07       1.86528e-14       6.46367e-09       5.21931e-01       9.66979e-02       5.21931e-01      
 5.58000e-01       3.51370e-06       2.63528e-07       1.89529e-14       7.09969e-09       5.21931e-01       1.01161e-01       5.21931e-01      
 5.67000e-01       3.85191e-06       2.96658e-07       1.92353e-14       7.77619e-09       5.21931e-01       1.05794e-01       5.21931e-01      
 5.76000e-01       4.20933e-06       3.32920e-07       1.95004e-14       8.49423e-09       5.21931e-01       1.10593e-01       5.21931e-01      
 5.85000e-01       4.58544e-06       3.72482e-07       1.97491e-14       9.25479e-09       5.21931e-01       1.15555e-01       5.21931e-01      
 5.94000e-01       4.97953e-06       4.15512e-07       1.99820e-14       1.00588e-08       5.21931e-01       1.20674e-01       5.21931e-01      
 6.03000e-01       5.39079e-06       4.62165e-07       2.01999e-14       1.09070e-08       5.21931e-01       1.25946e-01       5.21931e-01      
 6.12000e-01       5.81824e-06       5.12594e-07       2.04036e-14       1.18003e-08       5.21931e-01       1.31364e-01       5.21931e-01      
 6.21000e-01       6.26086e-06       5.66939e-07       2.05939e-14       1.27393e-08       5.21931e-01       1.36923e-01       5.21931e-01      
 6.30000e-01       6.71754e-06       6.25332e-07       2.07716e-14       1.37247e-08       5.21931e-01       1.42615e-01       5.21931e-01      
 6.39000e-01       7.18713e-06       6.87894e-07       2.09376e-14       1.47573e-08       5.21931e-01       1.48435e-01       5.21931e-01      
 6.48000e-01       7.66847e-06       7.54736e-07       2.10925e-14       1.58375e-08       5.21931e-01       1.54377e-01       5.21931e-01      
 6.57000e-01       8.16041e-06       8.25958e-07       2.12372e-14       1.69660e-08       5.21931e-01       1.60432e-01       5.21931e-01      
 6.66000e-01       8.66179e-06       9.01651e-07       2.13723e-14       1.81435e-08       5.21931e-01       1.66596e-01       5.21931e-01      
 6.75000e-01       9.17152e-06       9.81895e-07       2.14986e-14       1.93705e-08       5.21931e-01       1.72860e-01       5.21931e-01      
 6.84000e-01       9.68855e-06       1.06676e-06       2.16166e-14       2.06478e-08       5.21931e-01       1.79220e-01       5.21931e-01      
 6.93000e-01       1.02119e-05       1.15631e-06       2.17269e-14       2.19761e-08       5.21931e-01       1.85669e-01       5.21931e-01      
 7.02000e-01       1.07406e-05       1.25059e-06       2.18303e-14       2.33562e-08       5.21931e-01       1.92201e-01       5.21931e-01      
 7.11000e-01       1.12738e-05       1.34965e-06       2.19271e-14       2.47888e-08       5.21931e-01       1.98811e-01       5.21931e-01      
 7.20000e-01       1.18106e-05       1.45353e-06       2.20178e-14       2.62749e-08       5.21931e-01       2.05493e-01       5.21931e-01      
 7.29000e-01       1.23505e-05       1.56225e-06       2.21030e-14       2.78155e-08       5.21931e-01       2.12243e-01       5.21931e-01      
 7.38000e-01       1.28926e-05       1.67584e-06       2.21831e-14       2.94116e-08       5.21931e-01       2.19055e-01       5.21931e-01      
 7.47000e-01       1.34364e-05       1.79432e-06       2.22584e-14       3.10644e-08       5.21931e-01       2.25926e-01       5.21931e-01      
 7.56000e-01       1.39814e-05       1.91770e-06       2.23294e-14       3.27753e-08       5.21931e-01       2.32852e-01       5.21931e-01      
 7.65000e-01       1.45270e-05       2.04599e-06       2.23963e-14       3.45455e-08       5.21931e-01       2.39828e-01       5.21931e-01      
 7.74000e-01       1.50729e-05       2.17919e-06       2.24595e-14       3.63766e-08       5.21931e-01       2.46850e-01       5.21931e-01      
 7.83000e-01       1.56185e-05       2.31730e-06       2.25192e-14       3.82702e-08       5.21931e-01       2.53917e-01       5.21931e-01      
 7.92000e-01       1.61637e-05       2.46032e-06       2.25758e-14       4.02282e-08       5.21931e-01       2.61025e-01       5.21931e-01      
 8.01000e-01       1.67081e-05       2.60825e-06       2.26295e-14       4.22524e-08       5.21931e-01       2.68171e-01       5.21931e-01      
 8.10000e-01       1.72515e-05       2.76107e-06       2.26804e-14       4.43449e-08       5.21931e-01       2.75353e-01       5.21931e-01      
 8.19000e-01       1.77935e-05       2.91877e-06       2.27289e-14       4.65080e-08       5.21931e-01       2.82567e-01       5.21931e-01      
 8.28000e-01       1.83339e-05       3.08134e-06       2.27750e-14       4.87440e-08       5.21931e-01       2.89814e-01       5.21931e-01      
 8.37000e-01       1.88727e-05       3.24877e-06       2.28190e-14       5.10557e-08       5.21931e-01       2.97089e-01       5.21931e-01      
 8.46000e-01       1.94096e-05       3.42105e-06       2.28610e-14       5.34457e-08       5.21931e-01       3.04392e-01       5.21931e-01      
 8.55000e-01       1.99444e-05       3.59814e-06       2.29012e-14       5.59171e-08       5.21931e-01       3.11722e-01       5.21931e-01      
 8.64000e-01       2.04771e-05       3.78004e-06       2.29397e-14       5.84731e-08       5.21931e-01       3.19076e-01       5.21931e-01      
 8.73000e-01       2.10075e-05       3.96672e-06       2.29766e-14       6.11173e-08       5.21931e-01       3.26453e-01       5.21931e-01      
 8.82000e-01       2.15355e-05       4.15817e-06       2.30120e-14       6.38532e-08       5.21931e-01       3.33852e-01       5.21931e-01      
 8.91000e-01       2.20610e-05       4.35435e-06       2.30461e-14       6.66850e-08       5.21931e-01       3.41273e-01       5.21931e-01      
 9.00000e-01       2.25839e-05       4.55526e-06       2.30789e-14       6.96169e-08       5.21931e-01       3.48713e-01       5.21931e-01      
 9.09000e-01       2.31041e-05       4.76086e-06       2.31106e-14       7.26535e-08       5.21931e-01       3.56173e-01       5.21931e-01      
 9.18000e-01       2.36215e-05       4.97112e-06       2.31411e-14       7.57998e-08       5.21931e-01       3.63651e-01       5.21931e-01      
 9.27000e-01       2.41361e-05       5.18604e-06       2.31706e-14       7.90612e-08       5.21931e-01       3.71148e-01       5.21931e-01      
 9.36000e-01       2.46477e-05       5.40556e-06       2.31992e-14       8.24433e-08       5.21931e-01       3.78661e-01       5.21931e-01      
 9.45000e-01       2.51563e-05       5.62968e-06       2.32269e-14       8.59524e-08       5.21931e-01       3.86191e-01       5.21931e-01      
 9.54000e-01       2.56618e-05       5.85837e-06       2.32538e-14       8.95950e-08       5.21931e-01       3.93737e-01       5.21931e-01      
 9.63000e-01       2.61642e-05       6.09159e-06       2.32799e-14       9.33783e-08       5.21931e-01       4.01298e-01       5.21931e-01      
 9.72000e-01       2.66633e-05       6.32931e-06       2.33052e-14       9.73100e-08       5.21931e-01       4.08875e-01       5.21931e-01      
 9.81000e-01       2.71591e-05       6.57152e-06       2.33300e-14       1.01398e-07       5.21931e-01       4.16467e-01       5.21931e-01      
 9.90000e-01       2.76515e-05       6.81817e-06       2.33541e-14       1.05653e-07       5.21931e-01       4.24073e-01       5.21931e-01      
 9.99000e-01       2.81405e-05       7.06923e-06       2.33776e-14       1.10082e-07       5.21931e-01       4.31694e-01       5.21931e-01      
 1.00800e+00       2.86259e-05       7.32469e-06       2.34006e-14       1.14697e-07       5.21931e-01       4.39329e-01       5.21931e-01      
 1.01700e+00       2.91077e-05       7.58449e-06       2.34231e-14       1.19510e-07       5.21931e-01       4.46978e-01       5.21931e-01      
 1.02600e+00       2.95858e-05       7.84861e-06       2.34451e-14       1.24532e-07       5.21931e-01       4.54640e-01       5.21931e-01      
 1.03500e+00       3.00602e-05       8.11702e-06       2.34667e-14       1.29777e-07       5.21931e-01       4.62316e-01       5.21931e-01      
 1.04400e+00       3.05307e-05       8.38969e-06       2.34879e-14       1.35259e-07       5.21931e-01       4.70005e-01       5.21931e-01      
 1.05300e+00       3.09973e-05       8.66656e-06       2.35088e-14       1.40994e-07       5.21931e-01       4.77707e-01       5.21931e-01      
 1.06200e+00       3.14599e-05       8.94763e-06       2.35293e-14       1.47000e-07       5.21931e-01       4.85423e-01       5.21931e-01      
 1.07100e+00       3.19184e-05       9.23283e-06       2.35495e-14       1.53294e-07       5.21931e-01       4.93152e-01       5.21931e-01      
 1.08000e+00       3.23728e-05       9.52215e-06       2.35695e-14       1.59898e-07       5.21931e-01       5.00894e-01       5.21931e-01      
 1.08900e+00       3.28229e-05       9.81553e-06       2.35892e-14       1.66834e-07       5.21931e-01       5.08648e-01       5.21931e-01      
 1.09800e+00       3.32687e-05       1.01129e-05       2.36087e-14       1.74126e-07       5.21931e-01       5.16416e-01       5.21931e-01      
 1.10700e+00       3.37100e-05       1.04144e-05       2.36280e-14       1.81800e-07       5.21931e-01       5.24197e-01       5.21931e-01      
 1.11600e+00       3.41469e-05       1.07197e-05       2.36471e-14       1.89886e-07       5.21931e-01       5.31990e-01       5.21931e-01      
 1.12500e+00       3.45791e-05       1.10290e-05       2.36661e-14       1.98417e-07       5.21931e-01       5.39796e-01       5.21931e-01      
 1.13400e+00       3.50066e-05       1.13421e-05       2.36850e-14       2.07427e-07       5.21931e-01       5.47616e-01       5.21931e-01      
 1.14300e+00       3.54293e-05       1.16591e-05       2.37039e-14       2.16956e-07       5.21931e-01       5.55448e-01       5.21931e-01      
 1.15200e+00       3.58472e-05       1.19798e-05       2.37226e-14       2.27047e-07       5.21931e-01       5.63293e-01       5.21931e-01      
 1.16100e+00       3.62600e-05       1.23043e-05       2.37413e-14       2.37746e-07       5.21931e-01       5.71151e-01       5.21931e-01      
 1.17000e+00       3.66677e-05       1.26325e-05       2.37601e-14       2.49107e-07       5.21931e-01       5.79022e-01       5.21931e-01      
 1.17900e+00       3.70702e-05       1.29643e-05       2.37788e-14       2.61187e-07       5.21931e-01       5.86906e-01       5.21931e-01      
 1.18800e+00       3.74673e-05       1.32997e-05       2.37976e-14       2.74051e-07       5.21931e-01       5.94803e-01       5.21931e-01      
 1.19700e+00       3.78590e-05       1.36387e-05       2.38164e-14       2.87770e-07       5.21931e-01       6.02713e-01       5.21931e-01      
 1.20600e+00       3.82451e-05       1.39812e-05       2.38354e-14       3.02423e-07       5.21931e-01       6.10636e-01       5.21931e-01      
 1.21500e+00       3.86254e-05       1.43271e-05       2.38545e-14       3.18098e-07       5.21931e-01       6.18572e-01       5.21931e-01      
