
dc (V)            getData("M0:gm    getData("M0:id    getData("M0:cg    getData("M0:gd    getData("M0:vt    getData("M0:vd    getData("M0:vt

 0.00000e+00       4.53008e-12       1.61972e-13       3.49000e-15       1.06062e-14       5.28513e-01       4.18074e-02       5.28513e-01      
 9.00000e-03       6.05430e-12       2.09270e-13       3.47562e-15       1.41760e-14       5.28513e-01       4.18074e-02       5.28513e-01      
 1.80000e-02       8.09108e-12       2.72482e-13       3.46169e-15       1.89468e-14       5.28513e-01       4.18074e-02       5.28513e-01      
 2.70000e-02       1.08126e-11       3.56958e-13       3.44823e-15       2.53224e-14       5.28513e-01       4.18075e-02       5.28513e-01      
 3.60000e-02       1.44488e-11       4.69845e-13       3.43523e-15       3.38423e-14       5.28513e-01       4.18075e-02       5.28513e-01      
 4.50000e-02       1.93066e-11       6.20691e-13       3.42272e-15       4.52271e-14       5.28513e-01       4.18075e-02       5.28513e-01      
 5.40000e-02       2.57960e-11       8.22246e-13       3.41071e-15       6.04389e-14       5.28513e-01       4.18076e-02       5.28513e-01      
 6.30000e-02       3.44639e-11       1.09154e-12       3.39924e-15       8.07630e-14       5.28513e-01       4.18077e-02       5.28513e-01      
 7.20000e-02       4.60400e-11       1.45130e-12       3.38835e-15       1.07915e-13       5.28513e-01       4.18078e-02       5.28513e-01      
 8.10000e-02       6.14977e-11       1.93187e-12       3.37807e-15       1.44185e-13       5.28513e-01       4.18079e-02       5.28513e-01      
 9.00000e-02       8.21347e-11       2.57375e-12       3.36848e-15       1.92628e-13       5.28513e-01       4.18081e-02       5.28513e-01      
 9.90000e-02       1.09681e-10       3.43096e-12       3.35964e-15       2.57323e-13       5.28513e-01       4.18084e-02       5.28513e-01      
 1.08000e-01       1.46439e-10       4.57556e-12       3.35164e-15       3.43706e-13       5.28513e-01       4.18087e-02       5.28513e-01      
 1.17000e-01       1.95477e-10       6.10361e-12       3.34462e-15       4.59027e-13       5.28513e-01       4.18092e-02       5.28513e-01      
 1.26000e-01       2.60872e-10       8.14309e-12       3.33870e-15       6.12942e-13       5.28513e-01       4.18098e-02       5.28513e-01      
 1.35000e-01       3.48047e-10       1.08645e-11       3.33406e-15       8.18315e-13       5.28513e-01       4.18106e-02       5.28513e-01      
 1.44000e-01       4.64198e-10       1.44946e-11       3.33090e-15       1.09226e-12       5.28513e-01       4.18117e-02       5.28513e-01      
 1.53000e-01       6.18868e-10       1.93353e-11       3.32948e-15       1.45754e-12       5.28513e-01       4.18132e-02       5.28513e-01      
 1.62000e-01       8.24645e-10       2.57871e-11       3.32995e-15       1.94438e-12       5.28513e-01       4.18151e-02       5.28513e-01      
 1.71000e-01       1.09823e-09       3.43818e-11       3.33279e-15       2.59286e-12       5.28513e-01       4.18177e-02       5.28513e-01      
 1.80000e-01       1.46161e-09       4.58239e-11       3.33845e-15       3.45611e-12       5.28513e-01       4.18211e-02       5.28513e-01      
 1.89000e-01       1.94377e-09       6.10462e-11       3.34742e-15       4.60440e-12       5.28513e-01       4.18257e-02       5.28513e-01      
 1.98000e-01       2.58267e-09       8.12808e-11       3.36027e-15       6.13055e-12       5.28513e-01       4.18318e-02       5.28513e-01      
 2.07000e-01       3.42802e-09       1.08152e-10       3.37765e-15       8.15680e-12       5.28513e-01       4.18399e-02       5.28513e-01      
 2.16000e-01       4.54457e-09       1.43797e-10       3.40029e-15       1.08438e-11       5.28513e-01       4.18506e-02       5.28513e-01      
 2.25000e-01       6.01631e-09       1.91018e-10       3.42901e-15       1.44021e-11       5.28513e-01       4.18648e-02       5.28513e-01      
 2.34000e-01       7.95167e-09       2.53478e-10       3.46470e-15       1.91064e-11       5.28513e-01       4.18835e-02       5.28513e-01      
 2.43000e-01       1.04897e-08       3.35952e-10       3.50833e-15       2.53137e-11       5.28513e-01       4.19082e-02       5.28513e-01      
 2.52000e-01       1.38077e-08       4.44628e-10       3.56089e-15       3.34858e-11       5.28513e-01       4.19407e-02       5.28513e-01      
 2.61000e-01       1.81296e-08       5.87496e-10       3.62343e-15       4.42165e-11       5.28513e-01       4.19834e-02       5.28513e-01      
 2.70000e-01       2.37359e-08       7.74807e-10       3.69696e-15       5.82637e-11       5.28513e-01       4.20392e-02       5.28513e-01      
 2.79000e-01       3.09744e-08       1.01963e-09       3.78248e-15       7.65874e-11       5.28513e-01       4.21120e-02       5.28513e-01      
 2.88000e-01       4.02711e-08       1.33851e-09       3.88089e-15       1.00392e-10       5.28513e-01       4.22064e-02       5.28513e-01      
 2.97000e-01       5.21412e-08       1.75222e-09       3.99298e-15       1.31174e-10       5.28513e-01       4.23283e-02       5.28513e-01      
 3.06000e-01       6.71984e-08       2.28660e-09       4.11939e-15       1.70765e-10       5.28513e-01       4.24848e-02       5.28513e-01      
 3.15000e-01       8.61624e-08       2.97350e-09       4.26057e-15       2.21382e-10       5.28513e-01       4.26843e-02       5.28513e-01      
 3.24000e-01       1.09862e-07       3.85172e-09       4.41677e-15       2.85659e-10       5.28513e-01       4.29369e-02       5.28513e-01      
 3.33000e-01       1.39234e-07       4.96802e-09       4.58798e-15       3.66674e-10       5.28513e-01       4.32540e-02       5.28513e-01      
 3.42000e-01       1.75314e-07       6.37805e-09       4.77397e-15       4.67947e-10       5.28513e-01       4.36484e-02       5.28513e-01      
 3.51000e-01       2.19225e-07       8.14717e-09       4.97423e-15       5.93416e-10       5.28513e-01       4.41341e-02       5.28513e-01      
 3.60000e-01       2.72153e-07       1.03511e-08       5.18801e-15       7.47381e-10       5.28513e-01       4.47258e-02       5.28513e-01      
 3.69000e-01       3.35317e-07       1.30766e-08       5.41435e-15       9.34411e-10       5.28513e-01       4.54384e-02       5.28513e-01      
 3.78000e-01       4.09944e-07       1.64212e-08       5.65204e-15       1.15923e-09       5.28513e-01       4.62864e-02       5.28513e-01      
 3.87000e-01       4.97232e-07       2.04936e-08       5.89970e-15       1.42657e-09       5.28513e-01       4.72833e-02       5.28513e-01      
 3.96000e-01       5.98328e-07       2.54128e-08       6.15577e-15       1.74107e-09       5.28513e-01       4.84408e-02       5.28513e-01      
 4.05000e-01       7.14315e-07       3.13082e-08       6.41859e-15       2.10712e-09       5.28513e-01       4.97686e-02       5.28513e-01      
 4.14000e-01       8.46219e-07       3.83183e-08       6.68641e-15       2.52877e-09       5.28513e-01       5.12740e-02       5.28513e-01      
 4.23000e-01       9.95032e-07       4.65909e-08       6.95746e-15       3.00975e-09       5.28513e-01       5.29620e-02       5.28513e-01      
 4.32000e-01       1.16176e-06       5.62826e-08       7.22995e-15       3.55341e-09       5.28513e-01       5.48356e-02       5.28513e-01      
 4.41000e-01       1.34746e-06       6.75594e-08       7.50214e-15       4.16280e-09       5.28513e-01       5.68958e-02       5.28513e-01      
 4.50000e-01       1.55331e-06       8.05973e-08       7.77238e-15       4.84078e-09       5.28513e-01       5.91426e-02       5.28513e-01      
 4.59000e-01       1.78062e-06       9.55833e-08       8.03914e-15       5.59005e-09       5.28513e-01       6.15753e-02       5.28513e-01      
 4.68000e-01       2.03085e-06       1.12717e-07       8.30100e-15       6.41333e-09       5.28513e-01       6.41926e-02       5.28513e-01      
 4.77000e-01       2.30560e-06       1.32212e-07       8.55673e-15       7.31337e-09       5.28513e-01       6.69934e-02       5.28513e-01      
 4.86000e-01       2.60658e-06       1.54297e-07       8.80523e-15       8.29302e-09       5.28513e-01       6.99769e-02       5.28513e-01      
 4.95000e-01       2.93552e-06       1.79214e-07       9.04562e-15       9.35528e-09       5.28513e-01       7.31422e-02       5.28513e-01      
 5.04000e-01       3.29415e-06       2.07225e-07       9.27717e-15       1.05033e-08       5.28513e-01       7.64887e-02       5.28513e-01      
 5.13000e-01       3.68408e-06       2.38603e-07       9.49931e-15       1.17403e-08       5.28513e-01       8.00162e-02       5.28513e-01      
 5.22000e-01       4.10677e-06       2.73637e-07       9.71165e-15       1.30696e-08       5.28513e-01       8.37241e-02       5.28513e-01      
 5.31000e-01       4.56344e-06       3.12627e-07       9.91396e-15       1.44946e-08       5.28513e-01       8.76119e-02       5.28513e-01      
 5.40000e-01       5.05502e-06       3.55884e-07       1.01061e-14       1.60186e-08       5.28513e-01       9.16785e-02       5.28513e-01      
 5.49000e-01       5.58214e-06       4.03724e-07       1.02881e-14       1.76449e-08       5.28513e-01       9.59225e-02       5.28513e-01      
 5.58000e-01       6.14506e-06       4.56469e-07       1.04601e-14       1.93766e-08       5.28513e-01       1.00342e-01       5.28513e-01      
 5.67000e-01       6.74368e-06       5.14442e-07       1.06223e-14       2.12168e-08       5.28513e-01       1.04934e-01       5.28513e-01      
 5.76000e-01       7.37757e-06       5.77962e-07       1.07749e-14       2.31684e-08       5.28513e-01       1.09696e-01       5.28513e-01      
 5.85000e-01       8.04593e-06       6.47342e-07       1.09182e-14       2.52339e-08       5.28513e-01       1.14624e-01       5.28513e-01      
 5.94000e-01       8.74765e-06       7.22888e-07       1.10527e-14       2.74160e-08       5.28513e-01       1.19712e-01       5.28513e-01      
 6.03000e-01       9.48134e-06       8.04896e-07       1.11787e-14       2.97170e-08       5.28513e-01       1.24957e-01       5.28513e-01      
 6.12000e-01       1.02454e-05       8.93644e-07       1.12967e-14       3.21389e-08       5.28513e-01       1.30353e-01       5.28513e-01      
 6.21000e-01       1.10379e-05       9.89398e-07       1.14070e-14       3.46838e-08       5.28513e-01       1.35893e-01       5.28513e-01      
 6.30000e-01       1.18570e-05       1.09241e-06       1.15102e-14       3.73536e-08       5.28513e-01       1.41571e-01       5.28513e-01      
 6.39000e-01       1.27005e-05       1.20290e-06       1.16066e-14       4.01501e-08       5.28513e-01       1.47381e-01       5.28513e-01      
 6.48000e-01       1.35664e-05       1.32108e-06       1.16967e-14       4.30749e-08       5.28513e-01       1.53316e-01       5.28513e-01      
 6.57000e-01       1.44524e-05       1.44715e-06       1.17808e-14       4.61297e-08       5.28513e-01       1.59369e-01       5.28513e-01      
 6.66000e-01       1.53563e-05       1.58128e-06       1.18595e-14       4.93163e-08       5.28513e-01       1.65534e-01       5.28513e-01      
 6.75000e-01       1.62762e-05       1.72361e-06       1.19330e-14       5.26362e-08       5.28513e-01       1.71804e-01       5.28513e-01      
 6.84000e-01       1.72100e-05       1.87429e-06       1.20018e-14       5.60913e-08       5.28513e-01       1.78172e-01       5.28513e-01      
 6.93000e-01       1.81558e-05       2.03343e-06       1.20661e-14       5.96834e-08       5.28513e-01       1.84632e-01       5.28513e-01      
 7.02000e-01       1.91117e-05       2.20113e-06       1.21263e-14       6.34145e-08       5.28513e-01       1.91178e-01       5.28513e-01      
 7.11000e-01       2.00760e-05       2.37747e-06       1.21827e-14       6.72865e-08       5.28513e-01       1.97804e-01       5.28513e-01      
 7.20000e-01       2.10472e-05       2.56252e-06       1.22356e-14       7.13019e-08       5.28513e-01       2.04504e-01       5.28513e-01      
 7.29000e-01       2.20238e-05       2.75633e-06       1.22853e-14       7.54629e-08       5.28513e-01       2.11274e-01       5.28513e-01      
 7.38000e-01       2.30046e-05       2.95896e-06       1.23319e-14       7.97724e-08       5.28513e-01       2.18108e-01       5.28513e-01      
 7.47000e-01       2.39882e-05       3.17042e-06       1.23758e-14       8.42331e-08       5.28513e-01       2.25001e-01       5.28513e-01      
 7.56000e-01       2.49735e-05       3.39075e-06       1.24172e-14       8.88482e-08       5.28513e-01       2.31949e-01       5.28513e-01      
 7.65000e-01       2.59598e-05       3.61995e-06       1.24561e-14       9.36210e-08       5.28513e-01       2.38948e-01       5.28513e-01      
 7.74000e-01       2.69460e-05       3.85803e-06       1.24929e-14       9.85554e-08       5.28513e-01       2.45994e-01       5.28513e-01      
 7.83000e-01       2.79313e-05       4.10497e-06       1.25277e-14       1.03655e-07       5.28513e-01       2.53084e-01       5.28513e-01      
 7.92000e-01       2.89152e-05       4.36079e-06       1.25606e-14       1.08925e-07       5.28513e-01       2.60214e-01       5.28513e-01      
 8.01000e-01       2.98969e-05       4.62544e-06       1.25919e-14       1.14369e-07       5.28513e-01       2.67382e-01       5.28513e-01      
 8.10000e-01       3.08759e-05       4.89892e-06       1.26215e-14       1.19992e-07       5.28513e-01       2.74584e-01       5.28513e-01      
 8.19000e-01       3.18519e-05       5.18120e-06       1.26496e-14       1.25801e-07       5.28513e-01       2.81819e-01       5.28513e-01      
 8.28000e-01       3.28242e-05       5.47224e-06       1.26764e-14       1.31800e-07       5.28513e-01       2.89083e-01       5.28513e-01      
 8.37000e-01       3.37926e-05       5.77202e-06       1.27020e-14       1.37996e-07       5.28513e-01       2.96376e-01       5.28513e-01      
 8.46000e-01       3.47567e-05       6.08050e-06       1.27263e-14       1.44396e-07       5.28513e-01       3.03694e-01       5.28513e-01      
 8.55000e-01       3.57163e-05       6.39763e-06       1.27496e-14       1.51006e-07       5.28513e-01       3.11036e-01       5.28513e-01      
 8.64000e-01       3.66710e-05       6.72338e-06       1.27719e-14       1.57836e-07       5.28513e-01       3.18401e-01       5.28513e-01      
 8.73000e-01       3.76207e-05       7.05769e-06       1.27933e-14       1.64891e-07       5.28513e-01       3.25787e-01       5.28513e-01      
 8.82000e-01       3.85651e-05       7.40053e-06       1.28138e-14       1.72183e-07       5.28513e-01       3.33193e-01       5.28513e-01      
 8.91000e-01       3.95040e-05       7.75185e-06       1.28335e-14       1.79719e-07       5.28513e-01       3.40617e-01       5.28513e-01      
 9.00000e-01       4.04373e-05       8.11159e-06       1.28525e-14       1.87511e-07       5.28513e-01       3.48060e-01       5.28513e-01      
 9.09000e-01       4.13647e-05       8.47970e-06       1.28708e-14       1.95569e-07       5.28513e-01       3.55518e-01       5.28513e-01      
 9.18000e-01       4.22862e-05       8.85614e-06       1.28884e-14       2.03904e-07       5.28513e-01       3.62993e-01       5.28513e-01      
 9.27000e-01       4.32016e-05       9.24084e-06       1.29054e-14       2.12528e-07       5.28513e-01       3.70482e-01       5.28513e-01      
 9.36000e-01       4.41107e-05       9.63375e-06       1.29219e-14       2.21456e-07       5.28513e-01       3.77986e-01       5.28513e-01      
 9.45000e-01       4.50135e-05       1.00348e-05       1.29378e-14       2.30702e-07       5.28513e-01       3.85504e-01       5.28513e-01      
 9.54000e-01       4.59097e-05       1.04440e-05       1.29533e-14       2.40279e-07       5.28513e-01       3.93035e-01       5.28513e-01      
 9.63000e-01       4.67993e-05       1.08612e-05       1.29683e-14       2.50206e-07       5.28513e-01       4.00578e-01       5.28513e-01      
 9.72000e-01       4.76822e-05       1.12863e-05       1.29828e-14       2.60499e-07       5.28513e-01       4.08134e-01       5.28513e-01      
 9.81000e-01       4.85581e-05       1.17194e-05       1.29970e-14       2.71176e-07       5.28513e-01       4.15702e-01       5.28513e-01      
 9.90000e-01       4.94271e-05       1.21604e-05       1.30109e-14       2.82259e-07       5.28513e-01       4.23281e-01       5.28513e-01      
 9.99000e-01       5.02889e-05       1.26091e-05       1.30243e-14       2.93768e-07       5.28513e-01       4.30871e-01       5.28513e-01      
 1.00800e+00       5.11435e-05       1.30655e-05       1.30375e-14       3.05728e-07       5.28513e-01       4.38472e-01       5.28513e-01      
 1.01700e+00       5.19908e-05       1.35297e-05       1.30504e-14       3.18162e-07       5.28513e-01       4.46084e-01       5.28513e-01      
 1.02600e+00       5.28305e-05       1.40014e-05       1.30630e-14       3.31098e-07       5.28513e-01       4.53707e-01       5.28513e-01      
 1.03500e+00       5.36626e-05       1.44806e-05       1.30754e-14       3.44566e-07       5.28513e-01       4.61339e-01       5.28513e-01      
 1.04400e+00       5.44870e-05       1.49673e-05       1.30875e-14       3.58595e-07       5.28513e-01       4.68982e-01       5.28513e-01      
 1.05300e+00       5.53034e-05       1.54613e-05       1.30995e-14       3.73222e-07       5.28513e-01       4.76636e-01       5.28513e-01      
 1.06200e+00       5.61119e-05       1.59627e-05       1.31112e-14       3.88481e-07       5.28513e-01       4.84299e-01       5.28513e-01      
 1.07100e+00       5.69122e-05       1.64713e-05       1.31228e-14       4.04413e-07       5.28513e-01       4.91972e-01       5.28513e-01      
 1.08000e+00       5.77043e-05       1.69871e-05       1.31343e-14       4.21061e-07       5.28513e-01       4.99655e-01       5.28513e-01      
 1.08900e+00       5.84879e-05       1.75100e-05       1.31456e-14       4.38471e-07       5.28513e-01       5.07347e-01       5.28513e-01      
 1.09800e+00       5.92629e-05       1.80398e-05       1.31567e-14       4.56695e-07       5.28513e-01       5.15050e-01       5.28513e-01      
 1.10700e+00       6.00292e-05       1.85767e-05       1.31678e-14       4.75787e-07       5.28513e-01       5.22762e-01       5.28513e-01      
 1.11600e+00       6.07867e-05       1.91203e-05       1.31788e-14       4.95808e-07       5.28513e-01       5.30484e-01       5.28513e-01      
 1.12500e+00       6.15351e-05       1.96708e-05       1.31897e-14       5.16824e-07       5.28513e-01       5.38216e-01       5.28513e-01      
 1.13400e+00       6.22744e-05       2.02279e-05       1.32006e-14       5.38904e-07       5.28513e-01       5.45958e-01       5.28513e-01      
 1.14300e+00       6.30043e-05       2.07917e-05       1.32114e-14       5.62129e-07       5.28513e-01       5.53709e-01       5.28513e-01      
 1.15200e+00       6.37247e-05       2.13620e-05       1.32223e-14       5.86582e-07       5.28513e-01       5.61470e-01       5.28513e-01      
 1.16100e+00       6.44354e-05       2.19387e-05       1.32331e-14       6.12358e-07       5.28513e-01       5.69241e-01       5.28513e-01      
 1.17000e+00       6.51362e-05       2.25218e-05       1.32439e-14       6.39559e-07       5.28513e-01       5.77023e-01       5.28513e-01      
 1.17900e+00       6.58269e-05       2.31111e-05       1.32547e-14       6.68298e-07       5.28513e-01       5.84814e-01       5.28513e-01      
 1.18800e+00       6.65074e-05       2.37067e-05       1.32657e-14       6.98699e-07       5.28513e-01       5.92615e-01       5.28513e-01      
 1.19700e+00       6.71774e-05       2.43082e-05       1.32766e-14       7.30897e-07       5.28513e-01       6.00426e-01       5.28513e-01      
 1.20600e+00       6.78367e-05       2.49158e-05       1.32877e-14       7.65042e-07       5.28513e-01       6.08248e-01       5.28513e-01      
 1.21500e+00       6.84851e-05       2.55293e-05       1.32988e-14       8.01300e-07       5.28513e-01       6.16079e-01       5.28513e-01      
