
dc (V)            getData("M0:gm    getData("M0:id    getData("M0:cg    getData("M0:gd    getData("M0:vt    getData("M0:vd    getData("M0:vt

 0.00000e+00       1.09242e-12       5.49180e-14       1.50244e-14       7.93255e-16       5.16014e-01       4.00438e-02       5.16014e-01      
 9.00000e-03       1.46519e-12       6.63453e-14       1.49554e-14       1.06404e-15       5.16014e-01       4.00438e-02       5.16014e-01      
 1.80000e-02       1.96508e-12       8.16716e-14       1.48887e-14       1.42721e-15       5.16014e-01       4.00439e-02       5.16014e-01      
 2.70000e-02       2.63538e-12       1.02226e-13       1.48244e-14       1.91428e-15       5.16014e-01       4.00439e-02       5.16014e-01      
 3.60000e-02       3.53413e-12       1.29792e-13       1.47625e-14       2.56747e-15       5.16014e-01       4.00439e-02       5.16014e-01      
 4.50000e-02       4.73904e-12       1.66757e-13       1.47032e-14       3.44339e-15       5.16014e-01       4.00440e-02       5.16014e-01      
 5.40000e-02       6.35426e-12       2.16322e-13       1.46466e-14       4.61789e-15       5.16014e-01       4.00441e-02       5.16014e-01      
 6.30000e-02       8.51918e-12       2.82778e-13       1.45928e-14       6.19261e-15       5.16014e-01       4.00442e-02       5.16014e-01      
 7.20000e-02       1.14205e-11       3.71870e-13       1.45421e-14       8.30373e-15       5.16014e-01       4.00443e-02       5.16014e-01      
 8.10000e-02       1.53078e-11       4.91296e-13       1.44949e-14       1.11336e-14       5.16014e-01       4.00445e-02       5.16014e-01      
 9.00000e-02       2.05153e-11       6.51360e-13       1.44514e-14       1.49264e-14       5.16014e-01       4.00447e-02       5.16014e-01      
 9.90000e-02       2.74893e-11       8.65855e-13       1.44121e-14       2.00090e-14       5.16014e-01       4.00450e-02       5.16014e-01      
 1.08000e-01       3.68264e-11       1.15324e-12       1.43776e-14       2.68185e-14       5.16014e-01       4.00455e-02       5.16014e-01      
 1.17000e-01       4.93229e-11       1.53818e-12       1.43485e-14       3.59396e-14       5.16014e-01       4.00460e-02       5.16014e-01      
 1.26000e-01       6.60407e-11       2.05368e-12       1.43258e-14       4.81539e-14       5.16014e-01       4.00468e-02       5.16014e-01      
 1.35000e-01       8.83949e-11       2.74378e-12       1.43105e-14       6.45048e-14       5.16014e-01       4.00478e-02       5.16014e-01      
 1.44000e-01       1.18268e-10       3.66728e-12       1.43037e-14       8.63851e-14       5.16014e-01       4.00492e-02       5.16014e-01      
 1.53000e-01       1.58162e-10       4.90259e-12       1.43070e-14       1.15651e-13       5.16014e-01       4.00511e-02       5.16014e-01      
 1.62000e-01       2.11382e-10       6.55406e-12       1.43214e-14       1.54775e-13       5.16014e-01       4.00536e-02       5.16014e-01      
 1.71000e-01       2.82319e-10       8.76047e-12       1.43498e-14       2.07040e-13       5.16014e-01       4.00569e-02       5.16014e-01      
 1.80000e-01       3.76765e-10       1.17061e-11       1.43945e-14       2.76808e-13       5.16014e-01       4.00613e-02       5.16014e-01      
 1.89000e-01       5.02343e-10       1.56354e-11       1.44586e-14       3.69858e-13       5.16014e-01       4.00672e-02       5.16014e-01      
 1.98000e-01       6.69058e-10       2.08714e-11       1.45451e-14       4.93828e-13       5.16014e-01       4.00751e-02       5.16014e-01      
 2.07000e-01       8.89981e-10       2.78407e-11       1.46579e-14       6.58789e-13       5.16014e-01       4.00855e-02       5.16014e-01      
 2.16000e-01       1.18212e-09       3.71042e-11       1.48009e-14       8.77974e-13       5.16014e-01       4.00994e-02       5.16014e-01      
 2.25000e-01       1.56748e-09       4.93978e-11       1.49787e-14       1.16871e-12       5.16014e-01       4.01178e-02       5.16014e-01      
 2.34000e-01       2.07435e-09       6.56826e-11       1.51961e-14       1.55358e-12       5.16014e-01       4.01422e-02       5.16014e-01      
 2.43000e-01       2.73886e-09       8.72081e-11       1.54580e-14       2.06188e-12       5.16014e-01       4.01743e-02       5.16014e-01      
 2.52000e-01       3.60676e-09       1.15591e-10       1.57697e-14       2.73136e-12       5.16014e-01       4.02167e-02       5.16014e-01      
 2.61000e-01       4.73539e-09       1.52911e-10       1.61362e-14       3.61032e-12       5.16014e-01       4.02722e-02       5.16014e-01      
 2.70000e-01       6.19594e-09       2.01822e-10       1.65623e-14       4.76009e-12       5.16014e-01       4.03447e-02       5.16014e-01      
 2.79000e-01       8.07561e-09       2.65693e-10       1.70526e-14       6.25775e-12       5.16014e-01       4.04391e-02       5.16014e-01      
 2.88000e-01       1.04798e-08       3.48755e-10       1.76108e-14       8.19914e-12       5.16014e-01       4.05611e-02       5.16014e-01      
 2.97000e-01       1.35342e-08       4.56278e-10       1.82399e-14       1.07019e-11       5.16014e-01       4.07180e-02       5.16014e-01      
 3.06000e-01       1.73856e-08       5.94759e-10       1.89419e-14       1.39084e-11       5.16014e-01       4.09184e-02       5.16014e-01      
 3.15000e-01       2.22031e-08       7.72115e-10       1.97179e-14       1.79881e-11       5.16014e-01       4.11723e-02       5.16014e-01      
 3.24000e-01       2.81773e-08       9.97883e-10       2.05674e-14       2.31391e-11       5.16014e-01       4.14912e-02       5.16014e-01      
 3.33000e-01       3.55184e-08       1.28341e-09       2.14890e-14       2.95881e-11       5.16014e-01       4.18878e-02       5.16014e-01      
 3.42000e-01       4.44533e-08       1.64200e-09       2.24799e-14       3.75895e-11       5.16014e-01       4.23761e-02       5.16014e-01      
 3.51000e-01       5.52209e-08       2.08906e-09       2.35359e-14       4.74214e-11       5.16014e-01       4.29704e-02       5.16014e-01      
 3.60000e-01       6.80664e-08       2.64221e-09       2.46519e-14       5.93806e-11       5.16014e-01       4.36851e-02       5.16014e-01      
 3.69000e-01       8.32356e-08       3.32123e-09       2.58215e-14       7.37759e-11       5.16014e-01       4.45342e-02       5.16014e-01      
 3.78000e-01       1.00969e-07       4.14814e-09       2.70376e-14       9.09201e-11       5.16014e-01       4.55303e-02       5.16014e-01      
 3.87000e-01       1.21496e-07       5.14705e-09       2.82922e-14       1.11123e-10       5.16014e-01       4.66843e-02       5.16014e-01      
 3.96000e-01       1.45038e-07       6.34411e-09       2.95769e-14       1.34685e-10       5.16014e-01       4.80048e-02       5.16014e-01      
 4.05000e-01       1.71807e-07       7.76741e-09       3.08829e-14       1.61893e-10       5.16014e-01       4.94984e-02       5.16014e-01      
 4.14000e-01       2.02014e-07       9.44695e-09       3.22012e-14       1.93018e-10       5.16014e-01       5.11692e-02       5.16014e-01      
 4.23000e-01       2.35878e-07       1.14146e-08       3.35231e-14       2.28318e-10       5.16014e-01       5.30195e-02       5.16014e-01      
 4.32000e-01       2.73638e-07       1.37044e-08       3.48400e-14       2.68039e-10       5.16014e-01       5.50503e-02       5.16014e-01      
 4.41000e-01       3.15558e-07       1.63526e-08       3.61441e-14       3.12423e-10       5.16014e-01       5.72614e-02       5.16014e-01      
 4.50000e-01       3.61936e-07       1.93979e-08       3.74278e-14       3.61712e-10       5.16014e-01       5.96521e-02       5.16014e-01      
 4.59000e-01       4.13100e-07       2.28818e-08       3.86845e-14       4.16154e-10       5.16014e-01       6.22217e-02       5.16014e-01      
 4.68000e-01       4.69407e-07       2.68491e-08       3.99084e-14       4.76004e-10       5.16014e-01       6.49694e-02       5.16014e-01      
 4.77000e-01       5.31232e-07       3.13477e-08       4.10946e-14       5.41530e-10       5.16014e-01       6.78949e-02       5.16014e-01      
 4.86000e-01       5.98951e-07       3.64289e-08       4.22389e-14       6.13010e-10       5.16014e-01       7.09979e-02       5.16014e-01      
 4.95000e-01       6.72933e-07       4.21476e-08       4.33383e-14       6.90735e-10       5.16014e-01       7.42782e-02       5.16014e-01      
 5.04000e-01       7.53522e-07       4.85616e-08       4.43903e-14       7.74999e-10       5.16014e-01       7.77360e-02       5.16014e-01      
 5.13000e-01       8.41021e-07       5.57317e-08       4.53935e-14       8.66105e-10       5.16014e-01       8.13712e-02       5.16014e-01      
 5.22000e-01       9.35682e-07       6.37214e-08       4.63468e-14       9.64354e-10       5.16014e-01       8.51832e-02       5.16014e-01      
 5.31000e-01       1.03770e-06       7.25961e-08       4.72502e-14       1.07004e-09       5.16014e-01       8.91714e-02       5.16014e-01      
 5.40000e-01       1.14718e-06       8.24224e-08       4.81040e-14       1.18346e-09       5.16014e-01       9.33344e-02       5.16014e-01      
 5.49000e-01       1.26419e-06       9.32679e-08       4.89090e-14       1.30488e-09       5.16014e-01       9.76704e-02       5.16014e-01      
 5.58000e-01       1.38869e-06       1.05200e-07       4.96663e-14       1.43458e-09       5.16014e-01       1.02177e-01       5.16014e-01      
 5.67000e-01       1.52059e-06       1.18287e-07       5.03776e-14       1.57279e-09       5.16014e-01       1.06850e-01       5.16014e-01      
 5.76000e-01       1.65970e-06       1.32593e-07       5.10445e-14       1.71976e-09       5.16014e-01       1.11687e-01       5.16014e-01      
 5.85000e-01       1.80580e-06       1.48182e-07       5.16690e-14       1.87570e-09       5.16014e-01       1.16682e-01       5.16014e-01      
 5.94000e-01       1.95860e-06       1.65117e-07       5.22532e-14       2.04081e-09       5.16014e-01       1.21832e-01       5.16014e-01      
 6.03000e-01       2.11775e-06       1.83456e-07       5.27992e-14       2.21527e-09       5.16014e-01       1.27129e-01       5.16014e-01      
 6.12000e-01       2.28288e-06       2.03255e-07       5.33091e-14       2.39926e-09       5.16014e-01       1.32569e-01       5.16014e-01      
 6.21000e-01       2.45358e-06       2.24565e-07       5.37850e-14       2.59294e-09       5.16014e-01       1.38145e-01       5.16014e-01      
 6.30000e-01       2.62944e-06       2.47434e-07       5.42292e-14       2.79645e-09       5.16014e-01       1.43852e-01       5.16014e-01      
 6.39000e-01       2.81001e-06       2.71909e-07       5.46437e-14       3.00995e-09       5.16014e-01       1.49681e-01       5.16014e-01      
 6.48000e-01       2.99486e-06       2.98027e-07       5.50305e-14       3.23358e-09       5.16014e-01       1.55628e-01       5.16014e-01      
 6.57000e-01       3.18356e-06       3.25828e-07       5.53915e-14       3.46748e-09       5.16014e-01       1.61684e-01       5.16014e-01      
 6.66000e-01       3.37570e-06       3.55342e-07       5.57285e-14       3.71181e-09       5.16014e-01       1.67845e-01       5.16014e-01      
 6.75000e-01       3.57087e-06       3.86599e-07       5.60433e-14       3.96671e-09       5.16014e-01       1.74104e-01       5.16014e-01      
 6.84000e-01       3.76868e-06       4.19625e-07       5.63376e-14       4.23235e-09       5.16014e-01       1.80454e-01       5.16014e-01      
 6.93000e-01       3.96879e-06       4.54442e-07       5.66128e-14       4.50890e-09       5.16014e-01       1.86891e-01       5.16014e-01      
 7.02000e-01       4.17086e-06       4.91070e-07       5.68704e-14       4.79656e-09       5.16014e-01       1.93408e-01       5.16014e-01      
 7.11000e-01       4.37457e-06       5.29523e-07       5.71118e-14       5.09552e-09       5.16014e-01       2.00000e-01       5.16014e-01      
 7.20000e-01       4.57965e-06       5.69816e-07       5.73381e-14       5.40602e-09       5.16014e-01       2.06662e-01       5.16014e-01      
 7.29000e-01       4.78584e-06       6.11960e-07       5.75507e-14       5.72830e-09       5.16014e-01       2.13389e-01       5.16014e-01      
 7.38000e-01       4.99290e-06       6.55964e-07       5.77504e-14       6.06263e-09       5.16014e-01       2.20178e-01       5.16014e-01      
 7.47000e-01       5.20062e-06       7.01834e-07       5.79384e-14       6.40930e-09       5.16014e-01       2.27024e-01       5.16014e-01      
 7.56000e-01       5.40881e-06       7.49576e-07       5.81155e-14       6.76864e-09       5.16014e-01       2.33923e-01       5.16014e-01      
 7.65000e-01       5.61730e-06       7.99193e-07       5.82826e-14       7.14100e-09       5.16014e-01       2.40872e-01       5.16014e-01      
 7.74000e-01       5.82595e-06       8.50688e-07       5.84404e-14       7.52678e-09       5.16014e-01       2.47867e-01       5.16014e-01      
 7.83000e-01       6.03461e-06       9.04061e-07       5.85897e-14       7.92637e-09       5.16014e-01       2.54906e-01       5.16014e-01      
 7.92000e-01       6.24318e-06       9.59311e-07       5.87312e-14       8.34025e-09       5.16014e-01       2.61985e-01       5.16014e-01      
 8.01000e-01       6.45153e-06       1.01644e-06       5.88654e-14       8.76892e-09       5.16014e-01       2.69103e-01       5.16014e-01      
 8.10000e-01       6.65959e-06       1.07544e-06       5.89929e-14       9.21290e-09       5.16014e-01       2.76256e-01       5.16014e-01      
 8.19000e-01       6.86726e-06       1.13631e-06       5.91142e-14       9.67278e-09       5.16014e-01       2.83444e-01       5.16014e-01      
 8.28000e-01       7.07447e-06       1.19905e-06       5.92298e-14       1.01492e-08       5.16014e-01       2.90663e-01       5.16014e-01      
 8.37000e-01       7.28116e-06       1.26365e-06       5.93401e-14       1.06428e-08       5.16014e-01       2.97912e-01       5.16014e-01      
 8.46000e-01       7.48726e-06       1.33011e-06       5.94455e-14       1.11544e-08       5.16014e-01       3.05190e-01       5.16014e-01      
 8.55000e-01       7.69273e-06       1.39842e-06       5.95463e-14       1.16848e-08       5.16014e-01       3.12495e-01       5.16014e-01      
 8.64000e-01       7.89751e-06       1.46857e-06       5.96429e-14       1.22347e-08       5.16014e-01       3.19825e-01       5.16014e-01      
 8.73000e-01       8.10155e-06       1.54057e-06       5.97357e-14       1.28053e-08       5.16014e-01       3.27180e-01       5.16014e-01      
 8.82000e-01       8.30483e-06       1.61440e-06       5.98248e-14       1.33973e-08       5.16014e-01       3.34559e-01       5.16014e-01      
 8.91000e-01       8.50729e-06       1.69005e-06       5.99105e-14       1.40120e-08       5.16014e-01       3.41960e-01       5.16014e-01      
 9.00000e-01       8.70891e-06       1.76753e-06       5.99931e-14       1.46506e-08       5.16014e-01       3.49383e-01       5.16014e-01      
 9.09000e-01       8.90964e-06       1.84681e-06       6.00728e-14       1.53142e-08       5.16014e-01       3.56827e-01       5.16014e-01      
 9.18000e-01       9.10946e-06       1.92790e-06       6.01498e-14       1.60043e-08       5.16014e-01       3.64290e-01       5.16014e-01      
 9.27000e-01       9.30834e-06       2.01078e-06       6.02243e-14       1.67224e-08       5.16014e-01       3.71774e-01       5.16014e-01      
 9.36000e-01       9.50624e-06       2.09545e-06       6.02965e-14       1.74700e-08       5.16014e-01       3.79276e-01       5.16014e-01      
 9.45000e-01       9.70313e-06       2.18189e-06       6.03664e-14       1.82489e-08       5.16014e-01       3.86796e-01       5.16014e-01      
 9.54000e-01       9.89899e-06       2.27010e-06       6.04343e-14       1.90610e-08       5.16014e-01       3.94335e-01       5.16014e-01      
 9.63000e-01       1.00938e-05       2.36007e-06       6.05004e-14       1.99084e-08       5.16014e-01       4.01891e-01       5.16014e-01      
 9.72000e-01       1.02875e-05       2.45178e-06       6.05646e-14       2.07932e-08       5.16014e-01       4.09464e-01       5.16014e-01      
 9.81000e-01       1.04800e-05       2.54524e-06       6.06272e-14       2.17180e-08       5.16014e-01       4.17054e-01       5.16014e-01      
 9.90000e-01       1.06715e-05       2.64042e-06       6.06883e-14       2.26852e-08       5.16014e-01       4.24661e-01       5.16014e-01      
 9.99000e-01       1.08617e-05       2.73732e-06       6.07479e-14       2.36979e-08       5.16014e-01       4.32284e-01       5.16014e-01      
 1.00800e+00       1.10507e-05       2.83593e-06       6.08063e-14       2.47591e-08       5.16014e-01       4.39923e-01       5.16014e-01      
 1.01700e+00       1.12385e-05       2.93623e-06       6.08633e-14       2.58722e-08       5.16014e-01       4.47578e-01       5.16014e-01      
 1.02600e+00       1.14250e-05       3.03822e-06       6.09193e-14       2.70410e-08       5.16014e-01       4.55249e-01       5.16014e-01      
 1.03500e+00       1.16102e-05       3.14188e-06       6.09742e-14       2.82695e-08       5.16014e-01       4.62935e-01       5.16014e-01      
 1.04400e+00       1.17940e-05       3.24720e-06       6.10280e-14       2.95622e-08       5.16014e-01       4.70637e-01       5.16014e-01      
 1.05300e+00       1.19765e-05       3.35416e-06       6.10810e-14       3.09240e-08       5.16014e-01       4.78354e-01       5.16014e-01      
 1.06200e+00       1.21576e-05       3.46277e-06       6.11332e-14       3.23602e-08       5.16014e-01       4.86086e-01       5.16014e-01      
 1.07100e+00       1.23373e-05       3.57300e-06       6.11846e-14       3.38768e-08       5.16014e-01       4.93833e-01       5.16014e-01      
 1.08000e+00       1.25155e-05       3.68484e-06       6.12353e-14       3.54803e-08       5.16014e-01       5.01596e-01       5.16014e-01      
 1.08900e+00       1.26921e-05       3.79827e-06       6.12854e-14       3.71777e-08       5.16014e-01       5.09373e-01       5.16014e-01      
 1.09800e+00       1.28673e-05       3.91329e-06       6.13349e-14       3.89770e-08       5.16014e-01       5.17166e-01       5.16014e-01      
 1.10700e+00       1.30409e-05       4.02988e-06       6.13840e-14       4.08869e-08       5.16014e-01       5.24973e-01       5.16014e-01      
 1.11600e+00       1.32128e-05       4.14802e-06       6.14326e-14       4.29171e-08       5.16014e-01       5.32795e-01       5.16014e-01      
 1.12500e+00       1.33832e-05       4.26770e-06       6.14808e-14       4.50782e-08       5.16014e-01       5.40632e-01       5.16014e-01      
 1.13400e+00       1.35518e-05       4.38891e-06       6.15287e-14       4.73820e-08       5.16014e-01       5.48485e-01       5.16014e-01      
 1.14300e+00       1.37187e-05       4.51163e-06       6.15764e-14       4.98417e-08       5.16014e-01       5.56352e-01       5.16014e-01      
 1.15200e+00       1.38839e-05       4.63584e-06       6.16239e-14       5.24719e-08       5.16014e-01       5.64234e-01       5.16014e-01      
 1.16100e+00       1.40473e-05       4.76154e-06       6.16712e-14       5.52889e-08       5.16014e-01       5.72130e-01       5.16014e-01      
 1.17000e+00       1.42088e-05       4.88869e-06       6.17185e-14       5.83107e-08       5.16014e-01       5.80042e-01       5.16014e-01      
 1.17900e+00       1.43685e-05       5.01729e-06       6.17657e-14       6.15577e-08       5.16014e-01       5.87969e-01       5.16014e-01      
 1.18800e+00       1.45262e-05       5.14732e-06       6.18131e-14       6.50525e-08       5.16014e-01       5.95910e-01       5.16014e-01      
 1.19700e+00       1.46819e-05       5.27875e-06       6.18605e-14       6.88202e-08       5.16014e-01       6.03867e-01       5.16014e-01      
 1.20600e+00       1.48356e-05       5.41159e-06       6.19082e-14       7.28894e-08       5.16014e-01       6.11839e-01       5.16014e-01      
 1.21500e+00       1.49873e-05       5.54579e-06       6.19561e-14       7.72917e-08       5.16014e-01       6.19826e-01       5.16014e-01      
