
dc (V)            getData("M0:gm    getData("M0:id    getData("M0:cg    getData("M0:gd    getData("M0:vt    getData("M0:vd    getData("M0:vt

 0.00000e+00       1.75863e-12       7.54423e-14       9.14786e-15       1.82445e-15       5.18579e-01       4.03513e-02       5.18579e-01      
 9.00000e-03       2.35735e-12       9.38328e-14       9.10666e-15       2.44579e-15       5.18579e-01       4.03513e-02       5.18579e-01      
 1.80000e-02       3.15976e-12       1.18484e-13       9.06684e-15       3.27864e-15       5.18579e-01       4.03513e-02       5.18579e-01      
 2.70000e-02       4.23510e-12       1.51525e-13       9.02840e-15       4.39496e-15       5.18579e-01       4.03514e-02       5.18579e-01      
 3.60000e-02       5.67609e-12       1.95810e-13       8.99140e-15       5.89115e-15       5.18579e-01       4.03514e-02       5.18579e-01      
 4.50000e-02       7.60686e-12       2.55160e-13       8.95590e-15       7.89633e-15       5.18579e-01       4.03515e-02       5.18579e-01      
 5.40000e-02       1.01936e-11       3.34695e-13       8.92196e-15       1.05835e-14       5.18579e-01       4.03515e-02       5.18579e-01      
 6.30000e-02       1.36588e-11       4.41273e-13       8.88970e-15       1.41843e-14       5.18579e-01       4.03516e-02       5.18579e-01      
 7.20000e-02       1.82999e-11       5.84071e-13       8.85923e-15       1.90088e-14       5.18579e-01       4.03518e-02       5.18579e-01      
 8.10000e-02       2.45150e-11       7.75380e-13       8.83074e-15       2.54722e-14       5.18579e-01       4.03519e-02       5.18579e-01      
 9.00000e-02       3.28362e-11       1.03164e-12       8.80442e-15       3.41300e-14       5.18579e-01       4.03522e-02       5.18579e-01      
 9.90000e-02       4.39743e-11       1.37486e-12       8.78054e-15       4.57255e-14       5.18579e-01       4.03525e-02       5.18579e-01      
 1.08000e-01       5.88786e-11       1.83445e-12       8.75941e-15       6.12524e-14       5.18579e-01       4.03529e-02       5.18579e-01      
 1.17000e-01       7.88158e-11       2.44973e-12       8.74144e-15       8.20390e-14       5.18579e-01       4.03534e-02       5.18579e-01      
 1.26000e-01       1.05475e-10       3.27324e-12       8.72710e-15       1.09860e-13       5.18579e-01       4.03541e-02       5.18579e-01      
 1.35000e-01       1.41105e-10       4.37511e-12       8.71698e-15       1.47084e-13       5.18579e-01       4.03551e-02       5.18579e-01      
 1.44000e-01       1.88698e-10       5.84892e-12       8.71180e-15       1.96871e-13       5.18579e-01       4.03564e-02       5.18579e-01      
 1.53000e-01       2.52229e-10       7.81937e-12       8.71239e-15       2.63432e-13       5.18579e-01       4.03582e-02       5.18579e-01      
 1.62000e-01       3.36948e-10       1.04524e-11       8.71929e-15       3.52370e-13       5.18579e-01       4.03605e-02       5.18579e-01      
 1.71000e-01       4.49831e-10       1.39687e-11       8.73418e-15       4.71131e-13       5.18579e-01       4.03637e-02       5.18579e-01      
 1.80000e-01       6.00079e-10       1.86612e-11       8.75848e-15       6.29601e-13       5.18579e-01       4.03678e-02       5.18579e-01      
 1.89000e-01       7.99803e-10       2.49182e-11       8.79382e-15       8.40874e-13       5.18579e-01       4.03734e-02       5.18579e-01      
 1.98000e-01       1.06490e-09       3.32533e-11       8.84207e-15       1.12226e-12       5.18579e-01       4.03808e-02       5.18579e-01      
 2.07000e-01       1.41616e-09       4.43443e-11       8.90535e-15       1.49659e-12       5.18579e-01       4.03907e-02       5.18579e-01      
 2.16000e-01       1.88063e-09       5.90830e-11       8.98604e-15       1.99386e-12       5.18579e-01       4.04037e-02       5.18579e-01      
 2.25000e-01       2.49335e-09       7.86393e-11       9.08673e-15       2.65336e-12       5.18579e-01       4.04211e-02       5.18579e-01      
 2.34000e-01       3.29942e-09       1.04542e-10       9.21025e-15       3.52635e-12       5.18579e-01       4.04441e-02       5.18579e-01      
 2.43000e-01       4.35651e-09       1.38780e-10       9.35954e-15       4.67935e-12       5.18579e-01       4.04744e-02       5.18579e-01      
 2.52000e-01       5.73775e-09       1.83930e-10       9.53764e-15       6.19819e-12       5.18579e-01       4.05143e-02       5.18579e-01      
 2.61000e-01       7.53504e-09       2.43306e-10       9.74759e-15       8.19283e-12       5.18579e-01       4.05666e-02       5.18579e-01      
 2.70000e-01       9.86266e-09       3.21149e-10       9.99231e-15       1.08031e-11       5.18579e-01       4.06350e-02       5.18579e-01      
 2.79000e-01       1.28611e-08       4.22843e-10       1.02745e-14       1.42052e-11       5.18579e-01       4.07241e-02       5.18579e-01      
 2.88000e-01       1.67006e-08       5.55168e-10       1.05966e-14       1.86186e-11       5.18579e-01       4.08394e-02       5.18579e-01      
 2.97000e-01       2.15849e-08       7.26585e-10       1.09604e-14       2.43136e-11       5.18579e-01       4.09879e-02       5.18579e-01      
 3.06000e-01       2.77533e-08       9.47545e-10       1.13673e-14       3.16182e-11       5.18579e-01       4.11777e-02       5.18579e-01      
 3.15000e-01       3.54821e-08       1.23082e-09       1.18181e-14       4.09247e-11       5.18579e-01       4.14186e-02       5.18579e-01      
 3.24000e-01       4.50847e-08       1.59184e-09       1.23127e-14       5.26934e-11       5.18579e-01       4.17218e-02       5.18579e-01      
 3.33000e-01       5.69085e-08       2.04901e-09       1.28505e-14       6.74539e-11       5.18579e-01       4.20998e-02       5.18579e-01      
 3.42000e-01       7.13306e-08       2.62399e-09       1.34299e-14       8.58031e-11       5.18579e-01       4.25662e-02       5.18579e-01      
 3.51000e-01       8.87506e-08       3.34195e-09       1.40489e-14       1.08397e-10       5.18579e-01       4.31354e-02       5.18579e-01      
 3.60000e-01       1.09581e-07       4.23173e-09       1.47043e-14       1.35941e-10       5.18579e-01       4.38221e-02       5.18579e-01      
 3.69000e-01       1.34238e-07       5.32589e-09       1.53928e-14       1.69170e-10       5.18579e-01       4.46404e-02       5.18579e-01      
 3.78000e-01       1.63130e-07       6.66072e-09       1.61101e-14       2.08834e-10       5.18579e-01       4.56033e-02       5.18579e-01      
 3.87000e-01       1.96651e-07       8.27613e-09       1.68517e-14       2.55677e-10       5.18579e-01       4.67225e-02       5.18579e-01      
 3.96000e-01       2.35175e-07       1.02155e-08       1.76126e-14       3.10420e-10       5.18579e-01       4.80072e-02       5.18579e-01      
 4.05000e-01       2.79061e-07       1.25254e-08       1.83876e-14       3.73749e-10       5.18579e-01       4.94645e-02       5.18579e-01      
 4.14000e-01       3.28662e-07       1.52557e-08       1.91714e-14       4.46311e-10       5.18579e-01       5.10993e-02       5.18579e-01      
 4.23000e-01       3.84338e-07       1.84595e-08       1.99589e-14       5.28709e-10       5.18579e-01       5.29144e-02       5.18579e-01      
 4.32000e-01       4.46475e-07       2.21932e-08       2.07449e-14       6.21518e-10       5.18579e-01       5.49110e-02       5.18579e-01      
 4.41000e-01       5.15501e-07       2.65167e-08       2.15246e-14       7.25286e-10       5.18579e-01       5.70891e-02       5.18579e-01      
 4.50000e-01       5.91894e-07       3.14943e-08       2.22934e-14       8.40555e-10       5.18579e-01       5.94482e-02       5.18579e-01      
 4.59000e-01       6.76187e-07       3.71945e-08       2.30473e-14       9.67874e-10       5.18579e-01       6.19874e-02       5.18579e-01      
 4.68000e-01       7.68964e-07       4.36911e-08       2.37827e-14       1.10780e-09       5.18579e-01       6.47060e-02       5.18579e-01      
 4.77000e-01       8.70840e-07       5.10632e-08       2.44964e-14       1.26092e-09       5.18579e-01       6.76032e-02       5.18579e-01      
 4.86000e-01       9.82445e-07       5.93954e-08       2.51860e-14       1.42784e-09       5.18579e-01       7.06788e-02       5.18579e-01      
 4.95000e-01       1.10440e-06       6.87782e-08       2.58494e-14       1.60920e-09       5.18579e-01       7.39325e-02       5.18579e-01      
 5.04000e-01       1.23728e-06       7.93074e-08       2.64850e-14       1.80562e-09       5.18579e-01       7.73643e-02       5.18579e-01      
 5.13000e-01       1.38163e-06       9.10837e-08       2.70918e-14       2.01779e-09       5.18579e-01       8.09741e-02       5.18579e-01      
 5.22000e-01       1.53788e-06       1.04212e-07       2.76691e-14       2.24634e-09       5.18579e-01       8.47616e-02       5.18579e-01      
 5.31000e-01       1.70637e-06       1.18802e-07       2.82167e-14       2.49195e-09       5.18579e-01       8.87259e-02       5.18579e-01      
 5.40000e-01       1.88734e-06       1.34965e-07       2.87348e-14       2.75523e-09       5.18579e-01       9.28659e-02       5.18579e-01      
 5.49000e-01       2.08089e-06       1.52812e-07       2.92236e-14       3.03681e-09       5.18579e-01       9.71798e-02       5.18579e-01      
 5.58000e-01       2.28701e-06       1.72458e-07       2.96839e-14       3.33727e-09       5.18579e-01       1.01665e-01       5.18579e-01      
 5.67000e-01       2.50556e-06       1.94016e-07       3.01165e-14       3.65715e-09       5.18579e-01       1.06319e-01       5.18579e-01      
 5.76000e-01       2.73627e-06       2.17595e-07       3.05223e-14       3.99697e-09       5.18579e-01       1.11137e-01       5.18579e-01      
 5.85000e-01       2.97878e-06       2.43304e-07       3.09026e-14       4.35720e-09       5.18579e-01       1.16116e-01       5.18579e-01      
 5.94000e-01       3.23261e-06       2.71247e-07       3.12586e-14       4.73828e-09       5.18579e-01       1.21250e-01       5.18579e-01      
 6.03000e-01       3.49721e-06       3.01523e-07       3.15913e-14       5.14061e-09       5.18579e-01       1.26534e-01       5.18579e-01      
 6.12000e-01       3.77196e-06       3.34227e-07       3.19022e-14       5.56457e-09       5.18579e-01       1.31963e-01       5.18579e-01      
 6.21000e-01       4.05619e-06       3.69447e-07       3.21926e-14       6.01051e-09       5.18579e-01       1.37529e-01       5.18579e-01      
 6.30000e-01       4.34919e-06       4.07265e-07       3.24636e-14       6.47874e-09       5.18579e-01       1.43227e-01       5.18579e-01      
 6.39000e-01       4.65023e-06       4.47756e-07       3.27166e-14       6.96960e-09       5.18579e-01       1.49050e-01       5.18579e-01      
 6.48000e-01       4.95858e-06       4.90991e-07       3.29527e-14       7.48338e-09       5.18579e-01       1.54992e-01       5.18579e-01      
 6.57000e-01       5.27350e-06       5.37031e-07       3.31731e-14       8.02039e-09       5.18579e-01       1.61046e-01       5.18579e-01      
 6.66000e-01       5.59428e-06       5.85931e-07       3.33788e-14       8.58095e-09       5.18579e-01       1.67206e-01       5.18579e-01      
 6.75000e-01       5.92025e-06       6.37743e-07       3.35711e-14       9.16536e-09       5.18579e-01       1.73465e-01       5.18579e-01      
 6.84000e-01       6.25074e-06       6.92510e-07       3.37508e-14       9.77398e-09       5.18579e-01       1.79817e-01       5.18579e-01      
 6.93000e-01       6.58514e-06       7.50268e-07       3.39188e-14       1.04072e-08       5.18579e-01       1.86256e-01       5.18579e-01      
 7.02000e-01       6.92288e-06       8.11052e-07       3.40761e-14       1.10653e-08       5.18579e-01       1.92777e-01       5.18579e-01      
 7.11000e-01       7.26342e-06       8.74888e-07       3.42235e-14       1.17488e-08       5.18579e-01       1.99374e-01       5.18579e-01      
 7.20000e-01       7.60626e-06       9.41800e-07       3.43617e-14       1.24582e-08       5.18579e-01       2.06042e-01       5.18579e-01      
 7.29000e-01       7.95098e-06       1.01181e-06       3.44915e-14       1.31939e-08       5.18579e-01       2.12777e-01       5.18579e-01      
 7.38000e-01       8.29715e-06       1.08492e-06       3.46134e-14       1.39565e-08       5.18579e-01       2.19573e-01       5.18579e-01      
 7.47000e-01       8.64441e-06       1.16116e-06       3.47281e-14       1.47467e-08       5.18579e-01       2.26427e-01       5.18579e-01      
 7.56000e-01       8.99244e-06       1.24052e-06       3.48362e-14       1.55650e-08       5.18579e-01       2.33335e-01       5.18579e-01      
 7.65000e-01       9.34093e-06       1.32302e-06       3.49382e-14       1.64121e-08       5.18579e-01       2.40293e-01       5.18579e-01      
 7.74000e-01       9.68964e-06       1.40866e-06       3.50345e-14       1.72890e-08       5.18579e-01       2.47298e-01       5.18579e-01      
 7.83000e-01       1.00383e-05       1.49744e-06       3.51256e-14       1.81964e-08       5.18579e-01       2.54346e-01       5.18579e-01      
 7.92000e-01       1.03867e-05       1.58935e-06       3.52118e-14       1.91352e-08       5.18579e-01       2.61435e-01       5.18579e-01      
 8.01000e-01       1.07348e-05       1.68440e-06       3.52937e-14       2.01065e-08       5.18579e-01       2.68562e-01       5.18579e-01      
 8.10000e-01       1.10822e-05       1.78257e-06       3.53714e-14       2.11114e-08       5.18579e-01       2.75725e-01       5.18579e-01      
 8.19000e-01       1.14289e-05       1.88388e-06       3.54453e-14       2.21510e-08       5.18579e-01       2.82922e-01       5.18579e-01      
 8.28000e-01       1.17748e-05       1.98829e-06       3.55157e-14       2.32265e-08       5.18579e-01       2.90150e-01       5.18579e-01      
 8.37000e-01       1.21197e-05       2.09582e-06       3.55829e-14       2.43394e-08       5.18579e-01       2.97408e-01       5.18579e-01      
 8.46000e-01       1.24635e-05       2.20644e-06       3.56471e-14       2.54912e-08       5.18579e-01       3.04694e-01       5.18579e-01      
 8.55000e-01       1.28061e-05       2.32016e-06       3.57085e-14       2.66834e-08       5.18579e-01       3.12007e-01       5.18579e-01      
 8.64000e-01       1.31475e-05       2.43695e-06       3.57673e-14       2.79177e-08       5.18579e-01       3.19345e-01       5.18579e-01      
 8.73000e-01       1.34876e-05       2.55681e-06       3.58237e-14       2.91960e-08       5.18579e-01       3.26707e-01       5.18579e-01      
 8.82000e-01       1.38263e-05       2.67972e-06       3.58779e-14       3.05203e-08       5.18579e-01       3.34092e-01       5.18579e-01      
 8.91000e-01       1.41635e-05       2.80568e-06       3.59301e-14       3.18927e-08       5.18579e-01       3.41499e-01       5.18579e-01      
 9.00000e-01       1.44992e-05       2.93466e-06       3.59803e-14       3.33155e-08       5.18579e-01       3.48927e-01       5.18579e-01      
 9.09000e-01       1.48333e-05       3.06666e-06       3.60287e-14       3.47912e-08       5.18579e-01       3.56375e-01       5.18579e-01      
 9.18000e-01       1.51658e-05       3.20165e-06       3.60755e-14       3.63225e-08       5.18579e-01       3.63842e-01       5.18579e-01      
 9.27000e-01       1.54966e-05       3.33964e-06       3.61208e-14       3.79122e-08       5.18579e-01       3.71329e-01       5.18579e-01      
 9.36000e-01       1.58256e-05       3.48059e-06       3.61646e-14       3.95635e-08       5.18579e-01       3.78833e-01       5.18579e-01      
 9.45000e-01       1.61529e-05       3.62449e-06       3.62070e-14       4.12798e-08       5.18579e-01       3.86355e-01       5.18579e-01      
 9.54000e-01       1.64784e-05       3.77133e-06       3.62483e-14       4.30645e-08       5.18579e-01       3.93895e-01       5.18579e-01      
 9.63000e-01       1.68019e-05       3.92110e-06       3.62883e-14       4.49218e-08       5.18579e-01       4.01451e-01       5.18579e-01      
 9.72000e-01       1.71236e-05       4.07376e-06       3.63273e-14       4.68557e-08       5.18579e-01       4.09023e-01       5.18579e-01      
 9.81000e-01       1.74432e-05       4.22931e-06       3.63652e-14       4.88709e-08       5.18579e-01       4.16612e-01       5.18579e-01      
 9.90000e-01       1.77608e-05       4.38773e-06       3.64023e-14       5.09724e-08       5.18579e-01       4.24216e-01       5.18579e-01      
 9.99000e-01       1.80764e-05       4.54900e-06       3.64384e-14       5.31656e-08       5.18579e-01       4.31836e-01       5.18579e-01      
 1.00800e+00       1.83898e-05       4.71310e-06       3.64737e-14       5.54562e-08       5.18579e-01       4.39471e-01       5.18579e-01      
 1.01700e+00       1.87010e-05       4.88001e-06       3.65083e-14       5.78508e-08       5.18579e-01       4.47121e-01       5.18579e-01      
 1.02600e+00       1.90100e-05       5.04971e-06       3.65422e-14       6.03561e-08       5.18579e-01       4.54786e-01       5.18579e-01      
 1.03500e+00       1.93167e-05       5.22219e-06       3.65754e-14       6.29797e-08       5.18579e-01       4.62466e-01       5.18579e-01      
 1.04400e+00       1.96212e-05       5.39741e-06       3.66081e-14       6.57300e-08       5.18579e-01       4.70160e-01       5.18579e-01      
 1.05300e+00       1.99232e-05       5.57536e-06       3.66401e-14       6.86157e-08       5.18579e-01       4.77868e-01       5.18579e-01      
 1.06200e+00       2.02228e-05       5.75602e-06       3.66717e-14       7.16468e-08       5.18579e-01       4.85591e-01       5.18579e-01      
 1.07100e+00       2.05199e-05       5.93936e-06       3.67028e-14       7.48340e-08       5.18579e-01       4.93329e-01       5.18579e-01      
 1.08000e+00       2.08144e-05       6.12537e-06       3.67335e-14       7.81891e-08       5.18579e-01       5.01080e-01       5.18579e-01      
 1.08900e+00       2.11064e-05       6.31401e-06       3.67639e-14       8.17249e-08       5.18579e-01       5.08846e-01       5.18579e-01      
 1.09800e+00       2.13957e-05       6.50528e-06       3.67938e-14       8.54557e-08       5.18579e-01       5.16626e-01       5.18579e-01      
 1.10700e+00       2.16823e-05       6.69913e-06       3.68235e-14       8.93971e-08       5.18579e-01       5.24420e-01       5.18579e-01      
 1.11600e+00       2.19661e-05       6.89555e-06       3.68529e-14       9.35663e-08       5.18579e-01       5.32227e-01       5.18579e-01      
 1.12500e+00       2.22471e-05       7.09451e-06       3.68822e-14       9.79822e-08       5.18579e-01       5.40049e-01       5.18579e-01      
 1.13400e+00       2.25252e-05       7.29599e-06       3.69112e-14       1.02666e-07       5.18579e-01       5.47886e-01       5.18579e-01      
 1.14300e+00       2.28004e-05       7.49996e-06       3.69401e-14       1.07640e-07       5.18579e-01       5.55736e-01       5.18579e-01      
 1.15200e+00       2.30725e-05       7.70639e-06       3.69688e-14       1.12931e-07       5.18579e-01       5.63600e-01       5.18579e-01      
 1.16100e+00       2.33416e-05       7.91525e-06       3.69975e-14       1.18567e-07       5.18579e-01       5.71478e-01       5.18579e-01      
 1.17000e+00       2.36075e-05       8.12652e-06       3.70262e-14       1.24579e-07       5.18579e-01       5.79370e-01       5.18579e-01      
 1.17900e+00       2.38701e-05       8.34018e-06       3.70549e-14       1.31003e-07       5.18579e-01       5.87277e-01       5.18579e-01      
 1.18800e+00       2.41295e-05       8.55618e-06       3.70836e-14       1.37877e-07       5.18579e-01       5.95198e-01       5.18579e-01      
 1.19700e+00       2.43854e-05       8.77450e-06       3.71125e-14       1.45246e-07       5.18579e-01       6.03133e-01       5.18579e-01      
 1.20600e+00       2.46379e-05       8.99510e-06       3.71414e-14       1.53158e-07       5.18579e-01       6.11082e-01       5.18579e-01      
 1.21500e+00       2.48868e-05       9.21797e-06       3.71705e-14       1.61666e-07       5.18579e-01       6.19045e-01       5.18579e-01      
